-194.58567678570358	-0.015555555555555555
-195.03763278408286	0.012777777777777779
-195.48961024557985	-0.0048888888888905056
-195.9416091717168	0.0065555555555571726
-196.3936295640333	0.010111111111109494
-196.84567142404936	-0.03788888888888727
-197.2977347533024	-0.024222222222225455
-197.74981955331899	0.006222222222220605
-198.20192582562348	0.027666666666668283
-198.6540535717533	-0.03466666666666343
-199.10620279323282	-0.05311111111111434
-199.5583734915973	-0.06344444444444283
-200.0105656683733	-0.013111111111114345
-200.46277932508949	-0.022666666666668285
-200.91501446328328	-0.004555555555553939
-201.36727108447695	0.019111111111107876
-201.81954919021	0.020222222222218988
-202.27184878200688	-0.00044444444444606134
-202.72416986139842	0.019777777777781013
-203.17651242992207	0.032000000000003234
-203.6288764891	0.0486666666666699
-204.0812620404762	0.0011111111111111111
-204.53366908557277	0.0033333333333333335
-204.98609762592068	0.028777777777779394
-205.4385476630595	-0.014888888888890506
-205.8910191985136	0.03788888888888727
-206.34351223382254	0.010777777777774543
-206.79602677051503	0.04311111111111435
-207.24856281011984	-0.0022222222222222222
-207.7011203541787	-0.06311111111111435
-208.15369940421377	0.023111111111114344
-208.60629996176903	-0.007555555555558789
-209.058922028371	-0.05844444444444283
-209.51156560555057	-0.025555555555555557
-209.9642306948495	-0.04911111111110788
-210.41691729779214	-0.03222222222222222
-210.86962541592243	0.012333333333331717
-211.32235505076255	0.0073333333333317164
-211.77510620385863	-0.0012222222222206054
-212.22787887673718	-0.002999999999996766
-212.68067307093128	-0.02666666666666667
-213.13348878798266	0.04044444444444606
-213.5863260294157	0.039777777777781013
-214.03918479677648	-0.025333333333336566
-214.4920650915959	-0.002111111111112728
-214.9449669154005	-0.036888888888885654
-215.39789026973855	0.03177777777777616
-215.85083515613658	0.03188888888888566
-216.30380157613635	0.03588888888889212
-216.75678953126874	0.008777777777779395
-217.20979902306678	-0.0436666666666699
-217.6628300530766	-0.0077777777777777776
-218.11588262282254	0.006000000000001617
-218.5689567338507	-0.008555555555552322
-219.02205238769415	0.028333333333333332
-219.47516958588594	0.10911111111110788
-219.9283083299656	0.005111111111109495
-220.38146862146843	-0.028222222222223838
-220.8346504619361	0.00433333333333495
-221.28785385290172	0.044111111111107874
-221.74107879590048	0.04711111111111273
-222.19432529247416	0.032555555555558786
-222.64759334415578	-0.025333333333336566
-223.1008829524893	-0.032000000000003234
-223.55419411900988	0.03933333333333495
-224.00752684524844	-0.011222222222220605
-224.46088113275542	-0.0701111111111095
-224.91425698305733	0.012777777777777779
-225.36765439770463	-0.044666666666663433
-225.82107337822816	-0.0077777777777777776
-226.27451392616317	-0.025777777777774544
-226.72797604305794	0.02033333333333657
-227.18145973044113	-0.007444444444441211
-227.6349649898632	0.039777777777781013
-228.08849182285934	0.03455555555555394
-228.54204023096048	0.03888888888888889
-228.99561021571915	0.026000000000001616
-229.44920177866416	0.02722222222222222
-229.90281492134366	0.04755555555555879
-230.35644964529726	0.018111111111114346
-230.81010595205586	0.027111111111112727
-231.26378384316985	0.018333333333333333
-231.71748332017228	0.0026666666666682833
-232.1712043846136	0.0013333333333300995
-232.62494703802685	0.027000000000003233
-233.0787112819494	0.014444444444444444
-233.5324971179339	-0.008777777777779395
-233.986304547509	0.027777777777777776
-234.44013357222732	-0.03844444444444283
-234.89398419362408	0.022999999999996766
-235.34785641323884	-0.05277777777777778
-235.80175023262203	0.0025555555555587892
-236.2556656533045	0.04322222222222384
-236.7096026768367	-0.015888888888892123
-237.16356130476035	0.007999999999996767
-237.61754153861068	0.04077777777777455
-238.0715433799403	0.06888888888888889
-238.52556683028004	-0.007111111111112728
-238.97961189118686	0.045
-239.43367856419383	-0.06311111111111435
-239.88776685084264	-0.03844444444444283
-240.3418767526859	0.022000000000003232
-240.7960082712545	-0.04100000000000162
-241.25016140810536	0.015777777777774542
-241.7043361647715	-0.020555555555555556
-242.15853254280555	-0.061333333333330096
-242.61275054374707	-0.04144444444444768
-243.0669901691356	-0.03111111111111111
-243.52125142052373	-0.010555555555555556
-243.9755342994467	-0.009666666666663434
-244.42983880746144	0.0063333333333301
-244.8841649461031	0.05600000000000162
-245.33851271691785	0.04299999999999676
-245.79288212145389	0.026222222222220606
-246.24727316125296	-0.032333333333331715
-246.70168583786327	-0.0013333333333300995
-247.15612015283094	0.039777777777781013
-247.61057610769552	0.030555555555555555
-248.06505370400956	0.013444444444442828
-248.51955294331268	-0.000777777777774544
-248.97407382715957	0.02755555555555879
-249.42861635708982	0.03677777777777616
-249.8831805346495	0.04111111111111111
-250.33776636138907	0.04755555555555879
-250.79237383885018	0.015111111111109495
-251.24700296858546	0.0035555555555523218
-251.7016537521388	0.0077777777777777776
-252.15632619105412	-0.015555555555555555
-252.61102028688612	0.004222222222225456
-253.06573604117224	0.0034444444444428277
-253.52047345547157	-0.011000000000001616
-253.97523253132582	0.05455555555555394
-254.43001327027892	-0.04533333333333657
-254.88481567388556	-0.03611111111111111
-255.33963974368754	-0.012222222222222223
-255.79448548124174	-0.03833333333333333
-256.24935288809206	0.021222222222220605
-256.7042419657803	-0.01855555555555232
-257.1591527158676	0.069777777777781
-257.6140851398914	0.023333333333333334
-258.0690392394087	0.0036666666666699006
-258.5240150159676	-0.039222222222225454
-258.9790124711121	0.05488888888889051
-259.43403160639696	0.10022222222221899
-259.8890724233682	-0.011444444444447678
-260.34413492358055	0.028888888888888888
-260.7992191085802	0.06222222222222222
-261.254324979913	0.0348888888888905
-261.70945253914044	0.07522222222221898
-262.16460178779977	0.007444444444441211
-262.6197727274523	-0.02544444444444606
-263.0749653596462	0.03211111111111273
-263.5301796859234	0.04399999999999838
-263.98541570784704	0.07277777777777777
-264.44067342695905	0.05244444444444121
-264.89595284481845	0.061000000000001615
-265.35125396297354	0.03166666666666667
-265.8065767829703	0.06044444444444606
-266.26192130636787	0.05822222222222384
-266.7172875347123	0.04555555555555556
-267.17267546956265	0.0712222222222206
-267.6280851124629	0.002111111111112728
-268.08351646497204	0.05033333333333657
-268.53896952864056	0.07077777777777454
-268.9944443050145	0.14466666666666345
-269.4499407956594	0.10100000000000162
-269.90545900211276	0.04255555555555879
-270.3609989259423	0.015222222222218989
-270.816560568694	0.08544444444444606
-271.2721439319184	0.11333333333333333
-271.7277490171745	0.07733333333333171
-272.18337582601055	0.07833333333333334
-272.63902435998784	0.07933333333333495
-273.0946946206546	0.08322222222222384
-273.55038660956336	0.11088888888889212
-274.0061003282733	0.07322222222222384
-274.4618357783347	0.12444444444444444
-274.9175929613046	0.12155555555555718
-275.3733718787398	0.15044444444444607
-275.8291725321865	0.16788888888888728
-276.28499492320793	0.17944444444444443
-276.7408390533547	0.11422222222222546
-277.19670492418584	0.11700000000000324
-277.652592537256	0.144777777777781
-278.1085018941135	0.12755555555555878
-278.56443299632394	0.13111111111111112
-279.0203858454355	0.16655555555555718
-279.4763604430117	0.220222222222219
-279.93235679060496	0.1624444444444412
-280.3883748897658	0.16733333333333172
-280.8444147420598	0.16533333333333658
-281.3004763490374	0.19644444444444767
-281.7565597122598	0.1724444444444412
-282.21266483328174	0.2386666666666699
-282.6687917136558	0.13055555555555556
-283.1249403549498	0.22700000000000323
-283.58111075870755	0.2338888888888889
-284.03730292649897	0.2437777777777794
-284.4935168598746	0.23222222222222222
-284.94975256039123	0.19577777777777455
-285.4060100296145	0.23833333333333334
-285.86228926909047	0.2073333333333317
-286.31859028038906	0.22455555555555393
-286.774913065065	0.2048888888888905
-287.2312576246688	0.2351111111111095
-287.6876239607724	0.2787777777777794
-288.14401207492193	0.2520000000000032
-288.6004219686874	0.21611111111111111
-289.05685364362125	0.28155555555555717
-289.5133071012827	0.1986666666666699
-289.96978234323507	0.22777777777777777
-290.42627937103094	0.2485555555555523
-290.8827981862381	0.21577777777777454
-291.33933879041354	0.269777777777781
-291.795901185114	0.2761111111111111
-292.25248537190305	0.26955555555555394
-292.7090913523375	0.16044444444444605
-293.1657191279852	0.2773333333333317
-293.62236870040084	0.18766666666666829
-294.0790400711413	0.26322222222222386
-294.5357332417766	0.23788888888888726
-294.99244821385923	0.25466666666666343
-295.4491849889592	0.29422222222222544
-295.905943568629	0.22288888888888728
-296.36272395443643	0.27322222222222387
-296.8195261479427	0.2877777777777778
-297.2763501507027	0.31066666666666504
-297.7331959642883	0.275222222222219
-298.19006359025224	0.28311111111111437
-298.6469530301644	0.27966666666666345
-299.1038642855839	0.2673333333333317
-299.5607973580697	0.23299999999999677
-300.01775224919186	0.2561111111111111
-300.47472896050505	0.30666666666666664
-300.9317274935792	0.30088888888889215
-301.38874784997563	0.26822222222222386
-301.84579003125333	0.3076666666666683
-302.3028540389823	0.32722222222222225
-302.7599398747172	0.31622222222222063
-303.2170475400324	0.2664444444444477
-303.6741770364869	0.33644444444444765
-304.131328365642	0.31077777777777454
-304.5885015290654	0.2865555555555572
-305.0456965283184	0.3323333333333317
-305.5029133649688	0.29177777777777614
-305.96015204058205	0.2915555555555572
-306.41741255671513	0.30033333333333656
-306.87469491494454	0.20600000000000163
-307.3319991168228	0.2391111111111079
-307.7893251639263	0.20944444444444443
-308.24667305781423	0.27666666666666667
-308.7040428000499	0.2724444444444412
-309.1614343922076	0.23811111111111435
-309.61884783584213	0.27466666666666345
-310.076283132532	0.22255555555555878
-310.5337402838342	0.28311111111111437
-310.9912192913122	0.2573333333333317
-311.4487201565444	0.28211111111111276
-311.90624288108575	0.235
-312.36378746651036	0.23833333333333334
-312.82135391438175	0.225
-313.2789422262655	0.2975555555555588
-313.73655240373364	0.2633333333333333
-314.19418444834747	0.22933333333333494
-314.6518383616791	0.22155555555555717
-315.10951414529626	0.2487777777777794
-315.5672118007624	0.3187777777777794
-316.0249313296495	0.24922222222222545
-316.4826727335211	0.25922222222222546
-316.94043601395146	0.24844444444444283
-317.39822117250606	0.2653333333333366
-317.8560282107506	0.2525555555555588
-318.3138571302593	0.2678888888888873
-318.7717079325934	0.3264444444444477
-319.22958061933156	0.28200000000000325
-319.6874751920349	0.27011111111110947
-320.14539165227353	0.3235555555555523
-320.6033300016237	0.27933333333333493
-321.0612902416446	0.2753333333333366
-321.5192723739148	0.2996666666666634
-321.97727639999556	0.26955555555555394
-322.4353023214676	0.25622222222222063
-322.89335013989654	0.2514444444444477
-323.35141985684584	0.21311111111111433
-323.809511473894	0.21299999999999678
-324.2676249926068	0.22933333333333494
-324.72576041456256	0.21299999999999678
-325.18391774132493	0.21066666666666506
-325.64209697446375	0.2487777777777794
-326.10029811555756	0.2668888888888857
-326.5585211661699	0.2413333333333301
-327.0167661278793	0.20466666666666344
-327.4750330022557	0.31522222222221896
-327.93332179086246	0.27044444444444604
-328.3916324952848	0.2588888888888889
-328.8499651170839	0.2338888888888889
-329.30831965783835	0.235
-329.76669611912024	0.20655555555555719
-330.2250945024952	0.16922222222222547
-330.6835148095483	0.23177777777777617
-331.1419570418386	0.20033333333333656
-331.60042120094914	0.2587777777777794
-332.0589072884519	0.19733333333333172
-332.51741530591255	0.1837777777777794
-332.97594525491394	0.2311111111111111
-333.4344971370217	0.20700000000000324
-333.89307095381884	0.18844444444444283
-334.35166670687295	0.18155555555555716
-334.8102843977541	0.13299999999999676
-335.2689240280473	0.19155555555555717
-335.72758559931606	0.17077777777777453
-336.1862691131433	0.20944444444444443
-336.644974571101	0.18266666666666828
-337.1037019747592	0.16833333333333333
-337.5624513257008	0.17355555555555233
-338.02122262549136	0.21
-338.4800158757182	0.16977777777778102
-338.9388310779491	0.175
-339.39766823375606	0.13288888888888728
-339.85652734472643	0.13166666666666665
-340.3154084124214	0.1564444444444477
-340.77431143843046	0.1036666666666699
-341.2332364243257	0.11355555555555231
-341.69218337167484	0.1539999999999984
-342.15115228206736	0.15200000000000324
-342.6101431570688	0.16355555555555232
-343.0691559982643	0.14455555555555394
-343.52819080722816	0.1761111111111111
-343.9872475855324	0.09722222222222222
-344.44632633476215	0.1125555555555588
-344.9054270564873	0.16377777777777938
-345.3645497522931	0.10466666666666344
-345.8236944237515	0.13211111111111273
-346.28286107244105	0.1276666666666683
-346.74204969994264	0.10422222222222545
-347.2012603078305	0.13011111111110948
-347.66049289768756	0.10288888888888727
-348.1197474710881	0.16033333333333658
-348.57902402961065	0.13899999999999837
-349.0383225748382	0.21588888888889213
-349.49764310834286	0.20788888888888726
-349.9569856317119	0.13166666666666665
-350.41635014651735	0.14811111111111436
-350.87573665434434	0.1662222222222206
-351.33514515676933	0.12255555555555879
-351.79457565536876	0.10955555555555394
-352.25402815172765	0.08677777777777616
-352.71350264742256	0.08933333333333494
-353.17299914403844	0.08233333333333172
-353.63251764315186	0.13311111111111434
-354.0920581463392	0.11355555555555231
-354.55162065518766	0.09577777777777455
-355.0112051712738	0.11477777777778102
-355.4708116961826	0.06933333333333495
-355.93044023149486	0.11833333333333333
-356.39009077878274	0.06222222222222222
-356.84976333964	0.08244444444444121
-357.3094579156387	0.08899999999999839
-357.7691745083682	0.14888888888888888
-358.2289131194051	0.08899999999999839
-358.6886737503279	0.05444444444444444
-359.14845640272824	0.09600000000000161
-359.6082610781803	0.10899999999999839
-360.0680877782715	0.12844444444444283
-360.52793650458244	0.0975555555555588
-360.9878072586919	0.13177777777777616
-361.4477000421891	0.1486666666666699
-361.90761485665286	0.17
-362.3675517036703	0.06522222222221899
-362.8275105848223	0.1098888888888905
-363.2874915016873	0.14822222222222384
-363.7474944558571	0.11644444444444768
-364.207519448908	0.14166666666666666
-364.6675664824338	0.08888888888888889
-365.127635558011	0.10944444444444444
-365.58772667722025	0.07299999999999676
-366.04783984165755	0.09044444444444606
-366.50797505289506	0.06844444444444282
-366.96813231252645	0.1437777777777794
-367.42831162213474	0.07822222222222384
-367.8885129832984	0.14899999999999838
-368.3487363976114	0.09333333333333334
-368.80898186665	0.051666666666666666
-369.2692493920103	0.08399999999999838
-369.7295389752707	0.09111111111111111
-370.1898506180165	0.03833333333333333
-370.650184321837	0.08888888888888889
-371.1105400883131	0.1074444444444412
-371.57091791903844	0.07655555555555717
-372.03131781559597	0.10088888888889212
-372.49173977956656	0.0811111111111111
-372.9521838125461	0.08411111111110788
-373.41264991611314	0.07544444444444606
-373.8731380918637	0.08788888888888727
-374.33364834137853	0.09277777777777778
-374.79418066624055	0.07688888888888566
-375.25473506804786	0.08144444444444768
-375.7153115483769	0.0663333333333301
-376.175910108828	0.16533333333333658
-376.63653075097534	0.09911111111110787
-377.0971734764193	0.08833333333333333
-377.55783828674055	0.09455555555555394
-378.0185251835264	0.09777777777777778
-378.4792341683706	0.08333333333333333
-378.93996524285615	0.07166666666666667
-379.40071840857894	0.08311111111111434
-379.8614936671241	0.08
-380.32229102007454	0.12233333333333171
-380.7831104690306	0.10288888888888727
-381.2439520155708	0.053777777777779395
-381.7048156612955	0.03433333333333495
-382.1657014077876	0.07733333333333171
-382.62660925663437	0.0987777777777794
-383.08753920943604	0.03933333333333495
-383.5484912677691	0.10666666666666667
-384.0094654332361	0.050111111111109496
-384.4704617074219	0.11733333333333172
-384.93148009191395	0.0813333333333301
-385.39252058831033	0.15555555555555556
-385.85358319819613	0.04322222222222384
-386.31466792316513	0.06066666666666505
-386.77577476480894	0.10111111111111111
-387.23690372471486	0.11177777777777616
-387.69805480448093	0.10111111111111111
-388.1592280056902	0.1374444444444412
-388.6204233299428	0.07211111111111272
-389.08164077882833	0.08588888888889212
-389.54288035393176	0.11144444444444768
-390.0041420568578	0.13477777777778102
-390.4654258891872	0.12933333333333494
-390.9267318525224	0.11233333333333172
-391.38805994845063	0.12211111111111272
-391.84941017856136	0.08288888888888728
-392.3107825444549	0.0712222222222206
-392.7721770477185	0.08766666666666828
-393.23359368995244	0.09233333333333171
-393.69503247274616	0.08022222222221899
-394.156493397687	0.07055555555555555
-394.6179764663816	0.06966666666666343
-395.0794816804108	0.052111111111112725
-395.54100904138147	0.04022222222221899
-396.00255855087863	0.0812222222222206
-396.46413021049824	0.03455555555555394
-396.9257240218384	0.11322222222222383
-397.3873399864864	0.0986666666666699
-397.84897810604895	0.11944444444444445
-398.3106383821113	0.10788888888888727
-398.7723208162693	0.11666666666666667
-399.23402541012325	0.04966666666666343
-399.6957521652626	0.09655555555555717
-400.15750108328984	0.08966666666666344
-400.61927216579863	0.06244444444444121
-401.08106541437854	0.05544444444444606
-401.5428808306341	0.08555555555555555
-402.00471841615257	0.12566666666666504
-402.46657817254084	0.13799999999999676
-402.92846010139044	0.09399999999999838
-403.39036420429517	0.10244444444444122
-403.8522904828575	0.05488888888889051
-404.31423893866685	0.09822222222222383
-404.7762095733278	0.028333333333333332
-405.238202388432	0.039555555555553935
-405.70021738558626	0.06044444444444606
-406.1622545663778	0.11188888888888565
-406.62431393240695	0.08899999999999839
-407.0863954852761	0.08055555555555556
-407.5484992265748	0.06666666666666667
-408.0106251579119	0.040888888888892125
-408.47277328088114	0.08844444444444283
-408.9349435970765	0.052111111111112725
-409.39713610810236	0.048444444444442826
-409.85935081555266	0.11933333333333496
-410.3215877210341	0.115
-410.7838468261427	0.11944444444444445
-411.24612813247	0.10288888888888727
-411.70843164162716	0.055888888888892124
-412.17075735520143	0.09022222222221898
-412.63310527480616	0.07855555555555233
-413.09547540203505	0.07944444444444444
-413.55786773848195	0.12311111111111435
-414.0202822857579	0.07433333333333494
-414.48271904545237	0.07299999999999676
-414.9451780191766	0.07100000000000162
-415.4076592085263	0.10922222222222545
-415.8701626150998	0.03733333333333172
-416.3326882405038	0.08077777777777455
-416.79523608633207	0.10944444444444444
-417.25780615419364	0.09644444444444768
-417.7203984456865	0.10211111111111273
-418.18301296240884	0.09544444444444607
-418.6456497059696	0.09988888888889051
-419.1083086779626	0.09411111111110788
-419.5709898799967	0.03433333333333495
-420.03369331367446	0.14266666666666827
-420.4964189805896	0.05966666666666343
-420.9591668823554	0.04566666666666505
-421.4219370205635	0.07511111111110949
-421.88472939682936	0.10622222222222061
-422.34754401274677	0.07777777777777778
-422.8103808699181	0.08200000000000324
-423.27323996995455	0.1101111111111095
-423.7361213144521	0.02977777777778101
-424.19902490501954	0.08855555555555232
-424.6619507432595	0.09222222222222222
-425.12489883077006	0.053555555555552324
-425.58786916916443	0.06733333333333172
-426.05086176003863	0.11700000000000324
-426.51387660500376	0.07433333333333494
-426.97691370566224	0.08966666666666344
-427.43997306361445	0.07399999999999839
-427.9030546804714	-0.004111111111107877
-428.3661585578313	0.1098888888888905
-428.8292846973095	0.08166666666666667
-429.292433100502	0.03677777777777616
-429.7556037690157	0.047888888888887274
-430.2187967044615	0.07822222222222384
-430.6820119084355	-0.00044444444444606134
-431.1452493825554	0.07344444444444283
-431.60850912842125	0.09566666666666505
-432.0717911476357	0.06433333333333495
-432.5350954418141	0.08755555555555879
-432.9984220125525	0.051666666666666666
-433.46177086146844	0.09166666666666666
-433.92514199015784	0.029888888888890505
-434.38853540023626	0.07833333333333334
-434.85195109331045	-0.0044444444444444444
-435.3153890709785	0.046000000000001616
-435.7788493348602	0.06544444444444607
-436.24233188655154	-0.0014444444444476781
-436.7058367276723	0.07677777777777615
-437.16936385982274	0.006111111111111111
-437.6329132846097	0.06455555555555394
-438.0964850036464	0.05855555555555232
-438.56007901853536	0.004111111111107877
-439.02369533089416	0.0786666666666699
-439.4873339423253	0.10111111111111111
-439.95099485443336	0.0812222222222206
-440.414678068836	0.06577777777777455
-440.87838358713776	0.08566666666666505
-441.3421114109499	0.09744444444444121
-441.80586154188336	0.09855555555555232
-442.2696339815386	0.037111111111112725
-442.7334287315375	0.04022222222221899
-443.1972457934826	0.06688888888888565
-443.66108516898703	0.08488888888889051
-444.12494685966203	0.08744444444444122
-444.58883086711216	0.060777777777774544
-445.05273719295514	0.024222222222225455
-445.51666583879336	0.07666666666666666
-445.98061680624875	0.08233333333333172
-446.444590096926	0.02522222222221899
-446.9085857124297	0.08433333333333495
-447.3726036543862	0.11966666666666344
-447.8366439243913	0.052999999999996765
-448.3007065240715	0.04822222222222384
-448.76479145502907	0.029444444444444443
-449.2288987188752	0.02477777777778101
-449.69302831722763	0.029444444444444443
-450.157180251693	0.07333333333333333
-450.62135452389117	0.10355555555555232
-451.08555113543105	0.1086666666666699
-451.54977008791735	0.058888888888888886
-452.0140113829763	0.10955555555555394
-452.47827502221037	0.0586666666666699
-452.94256100724374	0.042222222222222223
-453.4068693396809	0.01644444444444768
-453.8712000211331	0.029222222222225456
-454.33555305322227	0.036888888888885654
-454.7999284375574	0.018777777777779395
-455.26432617575387	0.0986666666666699
-455.72874626942934	0.04966666666666343
-456.19318872018846	0.011666666666666667
-456.65765352965536	0.06355555555555233
-457.12214069943684	0.06700000000000324
-457.5866502311548	0.05144444444444768
-458.0511821264226	0.05033333333333657
-458.5157363868469	0.025777777777774544
-458.9803130140564	0.048999999999998385
-459.4449120096556	0.053777777777779395
-459.90953337526634	0.057000000000003236
-460.3741771125043	0.01855555555555232
-460.8388432229783	0.04966666666666343
-461.3035317083125	0.007111111111112728
-461.7682425701159	0.02033333333333657
-462.2329758100126	-0.01066666666666505
-462.6977314296115	0.06222222222222222
-463.16250943053467	0.03
-463.6273098143997	0.03177777777777616
-464.0921325828155	0.050111111111109496
-464.5569777374085	0.037666666666668285
-465.02184527978966	0.021666666666666667
-465.48673521158105	0.05388888888888889
-465.9516475343981	0.02277777777777778
-466.4165822498541	0.08088888888889212
-466.8815393595732	-0.01455555555555394
-467.3465188651687	-0.009333333333334951
-467.81152076826686	0.0018888888888856552
-468.2765450704789	0.0017777777777761609
-468.74159177342017	0.045222222222218986
-469.20666087871916	0.00433333333333495
-469.6717523879849	0.04211111111111273
-470.13686630284576	0.007666666666668284
-470.60200262491514	0.03466666666666343
-471.0671613558106	0.08933333333333494
-471.53234249715626	0.042000000000003236
-471.9975460505677	0.04588888888889212
-472.46277201766884	0.05177777777777616
-472.9280204000775	0.06566666666666506
-473.39329119940913	0.027888888888887273
-473.85858441729425	-0.023444444444442828
-474.3239000553419	0.02933333333333495
-474.78923811518274	-0.0661111111111111
-475.25459859843215	-0.03899999999999838
-475.71998150670566	0.021555555555557174
-476.18538684163605	0.015555555555555555
-476.65081460483447	0.019222222222225457
-477.1162647979293	0.014111111111107877
-477.58173742254047	0.02755555555555879
-478.0472324802834	0.025111111111109495
-478.51274997278654	-0.0236666666666699
-478.9782899016675	0.02211111111111273
-479.44385226855474	0.030666666666665048
-479.90943707506597	0.10455555555555394
-480.37504432282094	0.046555555555557175
-480.8406740134481	-0.015333333333336568
-481.30632614856296	0.028333333333333332
-481.77200072979826	0.027333333333331718
-482.23769775876957	0.022222222222222223
-482.70341723709873	0.08844444444444283
-483.1691591664165	0.07455555555555393
-483.63492354833824	0.07044444444444606
-484.1007103844946	0.084777777777781
-484.56651967650765	0.10877777777777939
-485.0323514259949	0.11455555555555394
-485.4982056345892	0.09811111111111434
-485.96408230390824	0.10111111111111111
-486.4299814355826	0.10355555555555232
-486.8959030312342	0.12700000000000322
-487.36184709248295	0.07933333333333495
-487.8278136209637	0.12799999999999676
-488.2938026182899	0.12088888888889213
-488.75981408609636	0.05899999999999838
-489.2258480260008	0.06266666666666829
-489.691904439636	0.08411111111110788
-490.1579833286262	0.10077777777777454
-490.62408469459103	0.09488888888889051
-491.09020853916337	0.07266666666666828
-491.55635486396307	0.03755555555555879
-492.02252367062505	0.06144444444444768
-492.4887149607713	0.10311111111111435
-492.95492873602154	0.027777777777777776
-493.42116499801523	0.11244444444444121
-493.8874237483699	0.07644444444444767
-494.35370498871833	0.07177777777777616
-494.82000872068477	0.029666666666663434
-495.28633494589326	0.07966666666666343
-495.75268366598095	0.05066666666666505
-496.21905488256334	0.056444444444447676
-496.68544859727973	0.07411111111110788
-497.15186481175425	0.09022222222221898
-497.6183035276089	0.1151111111111095
-498.08476474648074	0.09055555555555556
-498.55124846999183	0.13333333333333333
-499.01775469977713	0.09088888888889213
-499.48428343746286	0.07911111111110787
-499.9508346846732	0.1063333333333301
-500.41740844304326	0.1113333333333301
-500.88400471419914	0.07822222222222384
-501.35062349977375	0.09299999999999677
-501.81726480139554	0.18444444444444444
-502.2839286206865	0.12455555555555393
-502.75061495929026	0.09466666666666343
-503.2173238188244	0.1324444444444412
-503.68405520092836	0.09222222222222222
-504.1508091072283	0.12344444444444283
-504.61758553935283	0.14144444444444768
-505.08438449893686	0.1461111111111111
-505.55120598760664	0.19
-506.0180500070016	0.16166666666666665
-506.48491655874574	0.18566666666666504
-506.95180564446764	0.24422222222222545
-507.41871726580655	0.330222222222219
-507.88565142438887	0.2833333333333333
-508.3526081218494	0.28644444444444767
-508.8195873598211	0.28533333333333655
-509.28658913993024	0.3637777777777794
-509.75361346381396	0.3488888888888889
-510.2206603331029	0.4345555555555539
-510.68772974943204	0.48444444444444446
-511.15482171443193	0.5260000000000016
-511.62193622973336	0.49811111111111434
-512.0890732969756	0.6715555555555571
-512.5562329177849	0.7282222222222239
-513.0234150938005	0.9115555555555571
-513.4906198266532	1.028222222222224
-513.9578471179736	1.189333333333335
-514.4250969694032	1.4431111111111143
-514.8923693825683	1.9453333333333365
-515.359664359108	2.4433333333333334
-515.8269819006576	3.1262222222222205
-516.2943220088432	4.048333333333333
-516.7616846853108	4.982222222222222
-517.2290699316843	5.989666666666664
-517.6964777496096	6.724444444444444
-518.163908140711	7.440555555555555
-518.631361106634	7.905111111111109
-519.0988366490074	8.212888888888887
-519.566334769466	8.190777777777775
-520.0338554696514	7.953555555555552
-520.5013987511918	7.392999999999997
-520.9689646157333	6.761111111111111
-521.4365530649043	5.908888888888889
-521.9041641003398	5.144666666666663
-522.3717977236855	4.423333333333333
-522.8394539365678	3.8639999999999985
-523.3071327406303	3.2148888888888907
-523.7748341375102	2.7496666666666636
-524.2425581288381	2.277111111111113
-524.7103047162577	1.8966666666666667
-525.1780739014017	1.605888888888892
-525.6458656859161	1.3253333333333366
-526.1136800714314	1.1087777777777794
-526.5815170595826	0.9067777777777761
-527.0493766520176	0.7691111111111079
-527.5172588503651	0.6507777777777746
-527.9851636562729	0.505444444444446
-528.4530910713738	0.5087777777777794
-528.921041097303	0.42799999999999677
-529.3890137357082	0.3491111111111079
-529.8570089882202	0.2748888888888905
-530.3250268564869	0.3101111111111095
-530.7930673421413	0.29200000000000326
-531.2611304468224	0.2604444444444461
-531.7292161721742	0.23655555555555718
-532.1973245198315	0.21955555555555395
-532.6654554914422	0.24688888888888566
-533.1336090886414	0.2921111111111127
-533.601785313064	0.21188888888888566
-534.0699841663625	0.23066666666666505
-534.5382056501651	0.18522222222221899
-535.0064497661222	0.20944444444444443
-535.4747165158728	0.15722222222222224
-535.9430059010523	0.16799999999999676
-536.4113179233105	0.19111111111111112
-536.8796525842805	0.1736666666666699
-537.3480098856102	0.17922222222222545
-537.8163898289408	0.12688888888888566
-538.2847924159098	0.13311111111111434
-538.7532176481628	0.10144444444444768
-539.2216655273393	0.19044444444444605
-539.6901360550871	0.09344444444444283
-540.1586292330456	0.15211111111111272
-540.6271450628542	0.10333333333333333
-541.0956835461608	0.10566666666666505
-541.5642446846047	0.04233333333333172
-542.0328284798338	0.07877777777777939
-542.5014349334875	0.08655555555555718
-542.9700640472074	0.052666666666668284
-543.4387158226458	0.05
-543.9073902614354	0.060222222222218985
-544.3760873652284	0.03644444444444768
-544.8448071356644	0.06266666666666829
-545.3135495743911	0.07788888888888727
-545.7823146830525	0.1298888888888905
-546.2511024632898	0.09644444444444768
-546.7199129167511	0.08277777777777778
-547.1887460450778	0.06166666666666667
-547.6576018499223	0.10299999999999676
-548.1264803329261	0.10755555555555879
-548.5953814957263	0.09277777777777778
-549.0643053399817	0.08088888888889212
-549.5332518673296	0.062333333333331714
-550.0022210794199	0.08899999999999839
-550.4712129778986	0.08344444444444282
-550.9402275644072	0.025111111111109495
-551.4092648405979	0.049444444444444444
-551.8783248081123	0.053555555555552324
-552.3474074686026	0.05744444444444121
-552.8165128237125	0.07
-553.2856408750857	0.0586666666666699
-553.7547916243768	0.06755555555555878
-554.2239650732248	0.05244444444444121
-554.6931612232867	0.06344444444444283
-555.1623800762037	0.042222222222222223
-555.6316216336218	0.03022222222221899
-556.1008858971953	0.005444444444446061
-556.5701728685659	0.004222222222225456
-557.0394825493881	0.018111111111114346
-557.5088149413075	0.052999999999996765
-557.9781700459702	0.05766666666666828
-558.4475478650304	0.08911111111110788
-558.9169484001297	0.04111111111111111
-559.386371652927	0.031555555555557176
-559.8558176250638	0.07111111111111111
-560.32528631819	0.04322222222222384
-560.7947777339583	-0.016222222222220604
-561.2642918740142	0.09155555555555717
-561.7338287400167	0.09166666666666666
-562.2033883336073	0.015333333333336568
-562.6729706564339	0.04644444444444768
-563.1425757101575	0.06788888888888728
-563.6122034964175	0.07055555555555555
-564.0818540168725	0.05811111111111435
-564.551527273173	0.0536666666666699
-565.0212232669624	0.11777777777777777
-565.4909419999018	0.06555555555555556
-565.9606834736326	0.06011111111110949
-566.4304476898159	0.02277777777777778
-566.9002346500974	0.047000000000003234
-567.3700443561296	-0.015777777777774542
-567.8398768095669	-0.003222222222223839
-568.3097320120551	0.007444444444441211
-568.7796099652572	0.01455555555555394
-569.2495106708194	0.01755555555555879
-569.7194341303895	0.01644444444444768
-570.1893803456304	0.0213333333333301
-570.659349318184	-0.008555555555552322
-571.1293410497154	0.02955555555555394
-571.5993555418705	0.02
-572.0693927962996	0.0013333333333300995
-572.5394528146655	-0.031000000000001617
-573.0095355986142	-0.011222222222220605
-573.4796411498047	0.022000000000003232
-573.9497694698848	0.018444444444442827
-574.4199205605177	0.0413333333333301
-574.8900944233535	0.09688888888888565
-575.3602910600403	0.0
-575.8305104722433	0.011666666666666667
-576.3007526616063	0.013444444444442828
-576.7710176297967	0.01744444444444121
-577.2413053784647	0.06211111111111273
-577.7116159092583	0.06111111111111111
-578.1819492238428	0.05966666666666343
-578.6523053238684	0.028111111111114345
-579.1226842109961	0.07399999999999839
-579.5930858868782	0.09222222222222222
-580.0635103531647	0.030777777777774545
-580.5339576115255	0.05477777777778101
-581.0044276636041	0.06088888888889212
-581.4749205110681	0.05155555555555717
-581.9454361555678	-0.022999999999996766
-582.4159745987595	0.022222222222222223
-582.8865358423045	-0.02544444444444606
-583.3571198878527	0.05244444444444121
-583.8277267370719	0.013888888888888888
-584.2983563916141	0.046000000000001616
-584.7690088531341	0.04644444444444768
-585.239684123297	0.02722222222222222
-585.710382203751	0.03655555555555717
-586.1811030961655	0.03644444444444768
-586.6518468021932	0.07144444444444768
-587.1226133234903	0.06055555555555556
-587.5934026617203	0.05022222222221899
-588.0642148185354	0.014888888888890506
-588.5350497956055	0.055888888888892124
-589.0059075945825	0.033111111111114346
-589.4767882171211	0.09988888888889051
-589.9476916648932	0.10544444444444606
-590.4186179395447	0.01855555555555232
-590.8895670427494	0.09433333333333495
-591.3605389761575	0.06533333333333657
-591.8315337414301	0.052111111111112725
-592.3025513402324	0.10355555555555232
-592.7735917742168	0.08744444444444122
-593.2446550450552	0.06055555555555556
-593.7157411543999	0.03466666666666343
-594.1868501039118	0.03733333333333172
-594.6579818952584	0.012000000000003234
-595.1291365300922	0.047666666666668286
-595.6003140100827	0.0286666666666699
-596.0715143368888	0.0036666666666699006
-596.542737512167	0.01855555555555232
-597.0139835375894	0.1036666666666699
-597.4852524148062	0.04677777777777616
-597.956544145491	0.03344444444444283
-598.427858731303	0.047333333333331715
-598.8991961738965	0.04299999999999676
-599.3705564749457	0.06033333333333657
-599.8419396361027	0.04933333333333495
-600.3133456590438	0.06011111111110949
-600.7847745454213	0.0661111111111111
-601.2562262969005	0.03533333333333657
-601.7277009151491	0.05655555555555717
-602.1991984018235	0.06388888888888888
-602.6707187585978	0.04799999999999677
-603.1422619871244	0.03811111111111434
-603.6138280890793	0.07566666666666505
-604.0854170661194	0.02322222222222384
-604.5570289199077	0.03833333333333333
-605.0286636521159	0.044444444444444446
-605.5003212644011	0.0462222222222206
-605.9720017584369	0.022999999999996766
-606.4437051358823	0.07611111111111112
-606.9154313984005	0.044444444444444446
-607.3871805476632	0.028111111111114345
-607.8589525853293	0.052222222222222225
-608.3307475130752	0.0536666666666699
-608.8025653325572	0.05877777777777939
-609.2744060454429	0.026888888888885656
-609.746269653402	0.038777777777779396
-610.2181561580957	0.09666666666666666
-610.6900655611998	0.03322222222222384
-611.1619978643735	0.08244444444444121
-611.6339530692818	0.07266666666666828
-612.1059311775989	0.01755555555555879
-612.5779321909837	0.0748888888888905
-613.0499561111144	0.07088888888889212
-613.522002939652	0.036888888888885654
-613.9940726782619	0.016222222222220604
-614.4661653286181	0.038777777777779396
-614.9382808923816	0.07111111111111111
-615.4104193712285	0.053222222222223836
-615.8825807668243	0.07211111111111272
-616.3547650808298	0.08677777777777616
-616.8269723149278	0.0786666666666699
-617.2992024707728	0.04077777777777455
-617.7714555500473	0.06899999999999838
-618.2437315544126	0.03477777777778101
-618.7160304855361	0.04533333333333657
-619.1883523450938	0.08688888888888566
-619.660697134749	0.08455555555555394
-620.13306485618	0.085
-620.6054555110501	0.12144444444444767
-621.0778691010266	0.070222222222219
-621.5503056277902	0.03844444444444283
-622.0227650929996	0.06488888888889051
-622.4952474983354	0.06922222222222546
-622.9677528454652	0.045222222222218986
-623.4402811360561	0.04288888888888727
-623.9128323717847	0.03644444444444768
-624.3854065543161	0.000777777777774544
-624.8580036853288	0.11588888888889212
-625.3306237664923	0.0837777777777794
-625.8032667994721	0.07600000000000162
-626.2759327859509	0.06
-626.7486217275895	0.08155555555555717
-627.2213336260706	0.06677777777777616
-627.6940684830619	0.10144444444444768
-628.1668263002308	0.014444444444444444
-628.6396070792599	0.07544444444444606
-629.1124108218147	0.03677777777777616
-629.5852375295735	0.09422222222222545
-630.058087204208	0.11288888888888728
-630.5309598473858	0.0536666666666699
-631.0038554607918	0.04266666666666828
-631.4767740460869	0.04288888888888727
-631.949715604956	0.08055555555555556
-632.4226801390668	0.05277777777777778
-632.8956676500972	-0.044666666666663433
-633.3686781397193	0.08822222222222384
-633.841711609605	0.05655555555555717
-634.3147680614369	0.0663333333333301
-634.7878474968803	-0.002444444444441211
-635.260949917618	0.06344444444444283
-635.7340753253238	0.07799999999999677
-636.2072237216655	-0.004666666666663433
-636.680395108332	0.06644444444444768
-637.1535894869845	0.028777777777779394
-637.6268068593121	0.009777777777781011
-638.1000472269844	0.0811111111111111
-638.5733105916712	0.02088888888889212
-639.0465969550617	-0.002888888888887272
-639.5199063188232	0.10477777777778101
-639.9932386846386	0.04711111111111273
-640.4665940541819	0.030777777777774545
-640.9399724291247	0.0077777777777777776
-641.4133738111522	0.05611111111111111
-641.8867982019359	0.045444444444446064
-642.3602456031609	0.009555555555553938
-642.8337160165011	0.013444444444442828
-643.3072094436261	0.03411111111110788
-643.7807258862275	-0.013555555555552322
-644.2542653459725	-0.03044444444444606
-644.7278278245462	0.017999999999996765
-645.2014133236269	0.028999999999998385
-645.6750218448863	0.015111111111109495
-646.1486533900114	0.03588888888889212
-646.6223079606742	0.015555555555555555
-647.0959855585617	0.055111111111109494
-647.5696861853479	0.039777777777781013
-648.0434098427089	0.02388888888888889
-648.517156532334	0.03522222222221899
-648.9909262558926	0.05933333333333495
-649.4647190150743	0.010777777777774543
-649.9385348115528	0.0073333333333317164
-650.4123736470087	0.04288888888888727
-650.8862355231247	0.061333333333330096
-651.3601204415792	0.011555555555557172
-651.8340284040569	0.09344444444444283
-652.3079594122363	0.07922222222222546
-652.7819134677934	0.04111111111111111
-653.2558905724176	0.0033333333333333335
-653.729890727785	0.02477777777778101
-654.2039139355825	0.023999999999998384
-654.6779601974886	0.012000000000003234
-655.1520295151794	0.015888888888892123
-655.6261218903484	-0.026888888888885656
-656.1002373246653	0.025333333333336566
-656.5743758198258	-0.01066666666666505
-657.0485373775061	0.009222222222225455
-657.5227219993824	0.012666666666668283
-657.9969296871503	-0.03677777777777616
-658.4711604424795	0.011333333333330099
-658.9454142670658	0.03277777777777778
-659.4196911625829	0.009888888888890507
-659.8939911307226	0.05766666666666828
-660.3683141731628	0.02
-660.8426602915866	-0.029222222222225456
-661.3170294876829	-0.003999999999998383
-661.7914217631302	-0.005777777777774544
-662.2658371196176	-0.0011111111111111111
-662.7402755588298	0.019222222222225457
-663.2147370824455	-0.003111111111114345
-663.689221692158	0.02655555555555717
-664.1637293896434	-0.03422222222222546
-664.6382601765955	-0.007444444444441211
-665.1128140546946	0.017222222222222222
-665.5873910256255	0.022888888888887272
-666.0619910910776	0.006111111111111111
-666.5366142527313	0.010777777777774543
-667.0112605122779	0.032555555555558786
-667.4859298714044	0.06088888888889212
-667.9606223317894	0.042777777777777776
-668.4353378951283	0.0513333333333301
-668.9100765630996	0.019888888888890507
-669.3848383373968	0.06166666666666667
-669.8596232197068	0.028555555555552323
-670.3344312117081	0.014111111111107877
-670.8092623150985	0.012666666666668283
-671.2841165315585	0.025
-671.7589938627817	0.014222222222225456
-672.2338943104508	-0.033999999999998386
-672.7088178762548	0.008444444444442827
-673.183764561883	0.020111111111109494
-673.6587343690223	0.0056666666666650494
-674.1337272993643	0.01566666666666505
-674.608743354596	0.04433333333333495
-675.0837825364019	0.014444444444444444
-675.5588448464781	-0.0013333333333300995
-676.0339302865049	0.02477777777778101
-676.5090388581823	-0.02666666666666667
-676.9841705631953	0.06388888888888888
-677.4593254032266	0.016666666666666666
-677.9345033799782	0.04955555555555394
-678.4097044951285	-0.015
-678.8849287503776	-0.011555555555557172
-679.3601761474104	-0.012000000000003234
-679.8354466879138	-0.0348888888888905
-680.3107403735858	-0.003222222222223839
-680.786057206111	0.02211111111111273
-681.2613971871875	-0.033111111111114346
-681.7367603185022	-0.0015555555555571724
-682.2121466017401	0.021666666666666667
-682.6875560386053	-0.0012222222222206054
-683.1629886307785	0.04955555555555394
-683.6384443799576	-0.0463333333333301
-684.113923287836	-0.004222222222225456
-684.5894253560965	-0.04555555555555556
-685.0649505864411	0.014888888888890506
-685.5404989805548	0.048999999999998385
-686.0160705401399	-0.0034444444444428277
-686.4916652668811	-0.019777777777781013
-686.9672831624697	-0.007999999999996767
-687.4429242286059	-0.003111111111114345
-687.9185884669744	0.005777777777774544
-688.3942758792797	-0.0014444444444476781
-688.8699864672043	0.06733333333333172
-689.3457202324506	-0.010777777777774543
-689.8214771767098	0.01788888888888727
-690.297257301669	-0.002888888888887272
-690.7730606090347	0.015555555555555555
-691.2488871004896	0.02522222222221899
-691.724736777736	0.07055555555555555
-692.200609642465	0.011666666666666667
-692.676505696379	0.04933333333333495
-693.1524249411607	0.05488888888889051
-693.6283673785099	0.06411111111110787
-694.1043330101269	0.03022222222221899
-694.5803218376986	0.05966666666666343
-695.0563338629294	0.017999999999996765
-695.5323690875149	0.015444444444446061
-696.0084275131466	0.028333333333333332
-696.4845091415157	-0.025333333333336566
-696.960613974331	-0.039777777777781013
-697.4367420132794	0.02
-697.9128932600655	0.008555555555552322
-698.3890677163805	0.03422222222222546
-698.86526538392	-0.012222222222222223
-699.3414862643842	0.06422222222222546
-699.8177303594688	0.0413333333333301
-700.2939976708781	0.0012222222222206054
-700.770288200299	0.0005555555555555556
-701.246601949436	0.00022222222221898846
-701.7229389199848	0.01677777777777616
-702.1992991136455	0.009111111111107878
-702.6756825321179	0.04833333333333333
-703.1520891770979	0.022666666666668285
-703.628519050281	0.03166666666666667
-704.1049721533718	0.041222222222220606
-704.5814484880658	-0.014888888888890506
-705.0579480560675	0.0005555555555555556
-705.5344708590682	0.03644444444444768
-706.0110168987721	0.002777777777777778
-706.4875861768753	-0.08922222222222545
-706.964178695086	0.025555555555555557
-707.440794455096	-0.04188888888888565
-707.9174334586095	0.01
-708.3940957073221	-0.008555555555552322
-708.8707812029381	0.015333333333336568
-709.3474899471622	0.010111111111109494
-709.8242219416854	-0.005444444444446061
-710.300977188221	-0.021666666666666667
-710.777755688456	0.035555555555555556
-711.2545574441032	-0.00022222222221898846
-711.7313824568585	-0.030555555555555555
-712.2082307284262	-0.03533333333333657
-712.6851022605063	-0.0023333333333317163
-713.1619970548032	0.005888888888892122
-713.638915113017	-0.034444444444444444
-714.1158564368476	-0.026222222222220606
-714.5928210279995	0.02277777777777778
-715.0698088881813	-0.04077777777777455
-715.5468200190887	0.024111111111107877
-716.0238544224261	0.044666666666663433
-716.5009120998935	-0.020111111111109494
-716.977993053204	-0.026888888888885656
-717.4550972840533	-0.00022222222221898846
-717.9322247941457	-0.07766666666666829
-718.4093755851854	-0.005111111111109495
-718.8865496588771	-0.044111111111107874
-719.3637470169251	-0.008333333333333333
-719.8409676610379	-0.017777777777777778
-720.3182115929113	0.025777777777774544
-720.7954788142584	0.049222222222225456
-721.2727693267748	0.015555555555555555
-721.7500831321736	0.02911111111110788
-722.2274202321591	0.07733333333333171
-722.7047806284315	0.00022222222221898846
-723.1821643226992	0.02388888888888889
-723.6595713166713	0.006666666666666667
-724.1370016120475	-0.021444444444447677
-724.6144552105366	-0.039777777777781013
-725.0919321138472	-0.017999999999996765
-725.5694323236796	-0.024111111111107877
-726.0469558417466	-0.018666666666669902
-726.5245026697527	0.006000000000001617
-727.0020728094022	-0.032333333333331715
-727.4796662624082	-0.008111111111114344
-727.9572830304705	-0.023777777777779396
-728.4349231152981	0.005111111111109495
-728.912586518604	0.0513333333333301
-729.3902732420881	0.0863333333333301
-729.8679832874678	-0.01788888888888727
-730.3457166564433	0.05544444444444606
-730.823473350723	0.03022222222221899
-731.3012533720158	-0.03777777777777778
-731.7790567220347	-0.0018888888888856552
-732.2568834024842	-0.07244444444444122
-732.7347334150727	-0.006888888888885655
-733.212606761509	0.017333333333331716
-733.6905034435065	0.02477777777778101
-734.1684234627734	0.01066666666666505
-734.6463668210187	-0.011000000000001616
-735.1243335199466	0.036000000000001614
-735.6023235612747	0.07677777777777615
-736.0803369467071	0.0037777777777793947
-736.5583736779571	0.023333333333333334
-737.0364337567376	-0.003222222222223839
-737.5145171847528	0.018999999999998383
-737.992623963716	0.0413333333333301
-738.4707540953402	-0.011333333333330099
-738.948907581334	0.007888888888887271
-739.4270844234062	0.027888888888887273
-739.9052846232784	-0.011444444444447678
-740.3835081826508	-0.04288888888888727
-740.8617551032362	-0.032333333333331715
-741.3400253867522	-0.05255555555555879
-741.8183190349074	-0.0048888888888905056
-742.2966360494192	0.030111111111109493
-742.774976431992	-0.01022222222221899
-743.2533401843431	0.02566666666666505
-743.7317273081812	-0.022555555555558788
-744.2101378052195	0.006666666666666667
-744.6885716771794	-0.0015555555555571724
-745.1670289257655	0.014666666666663433
-745.6455095526909	0.031555555555557176
-746.1240135596728	-0.010777777777774543
-746.6025409484243	-0.005222222222218988
-747.0810917206585	0.00044444444444606134
-747.5596658780928	0.006222222222220605
-748.0382634224356	0.022000000000003232
-748.5168843554004	0.004222222222225456
-748.9955286787085	-0.0063333333333301
-749.4741963940733	0.04711111111111273
-749.9528875032032	-0.00433333333333495
-750.4316020078201	-0.009888888888890507
-750.910339909637	0.009222222222225455
-751.3891012103668	0.02388888888888889
-751.8678859117314	0.008444444444442827
-752.3466940154394	-0.0236666666666699
-752.8255255232082	-0.007888888888887271
-753.3043804367552	0.021888888888885655
-753.7832587577979	0.010888888888892122
-754.2621604880533	0.018999999999998383
-754.7410856292348	-0.02544444444444606
-755.2200341830596	0.06355555555555233
-755.6990061512452	0.03788888888888727
-756.1780015355046	0.02244444444444121
-756.6570203375636	-0.0012222222222206054
-757.1360625591357	-0.016555555555557173
-757.6151282019335	-0.019444444444444445
-758.0942172676833	0.08888888888888889
-758.5733297580939	0.03755555555555879
-759.0524656748911	-0.030777777777774545
-759.5316250197924	-0.016333333333330098
-760.0108077945107	0.03655555555555717
-760.4900140007636	0.003999999999998383
-760.9692436402813	-0.011333333333330099
-761.4484967147683	0.04299999999999676
-761.927773225955	0.007888888888887271
-762.4070731755543	0.012333333333331717
-762.8863965652879	0.018333333333333333
-763.3657433968777	0.015444444444446061
-763.8451136720366	0.002999999999996766
-764.3245073924907	0.0463333333333301
-764.8039245599573	0.015333333333336568
-765.2833651761582	0.03344444444444283
-765.7628292428109	0.07566666666666505
-766.2423167616367	0.0
-766.7218277343578	-0.009222222222225455
-767.2013621626955	0.0037777777777793947
-767.6809200483718	-0.02088888888889212
-768.160501393104	0.03333333333333333
-768.6401061986181	-0.012333333333331717
-769.1197344666316	0.008333333333333333
-769.5993861988703	0.046888888888885656
-770.0790613970476	0.034444444444444444
-770.5587600628978	-0.005333333333336567
-771.0384821981343	-0.046888888888885656
-771.5182278044829	-0.04799999999999677
-771.9979968836655	0.04266666666666828
-772.4777894374037	-0.002888888888887272
-772.9576054674235	0.014888888888890506
-773.4374449754467	0.000777777777774544
-773.9173079631952	-0.004555555555553939
-774.3971944323904	-0.021555555555557174
-774.8771043847628	0.010888888888892122
-775.3570378220297	0.0077777777777777776
-775.8369947459174	0.0563333333333301
-776.3169751581473	0.043333333333333335
-776.7969790604544	0.037666666666668285
-777.2770064545472	-0.031444444444447675
-777.7570573421606	0.0063333333333301
-778.2371317250161	-0.00022222222221898846
-778.7172296048399	-0.020222222222218988
-779.1973509833623	0.012777777777777779
-779.6774958622964	0.06355555555555233
-780.157664243377	-0.003111111111114345
-780.6378561283256	0.01044444444444606
-781.1180715188684	0.03355555555555232
-781.5983104167315	0.023333333333333334
-782.0785728236451	0.08188888888888565
-782.5588587413312	-0.02277777777777778
-783.0391681715155	0.006666666666666667
-783.5195011159286	0.01
-783.9998575762921	0.030555555555555555
-784.480237554341	0.04755555555555879
-784.9606410517923	0.06088888888889212
-785.4410680703809	-0.01433333333333495
-785.9215186118329	0.06811111111111434
-786.40199267787	0.06688888888888565
-786.8824902702311	0.01711111111111273
-787.3630113906338	0.011000000000001616
-787.8435560408127	0.02977777777778101
-788.3241242224894	0.05033333333333657
-788.8047159374032	0.044444444444444446
-789.2853311872715	-0.04188888888888565
-789.7659699738286	0.02277777777777778
-790.2466322988054	-0.03333333333333333
-790.7273181639276	0.0386666666666699
-791.2080275709216	0.0012222222222206054
-791.688760521526	-0.03177777777777616
-792.1695170174628	0.0038888888888888888
-792.6502970604668	-0.021000000000001618
-793.1311006522637	-0.002111111111112728
-793.6119277945843	-0.03788888888888727
-794.092778489163	-0.046000000000001616
-794.5736527377261	0.03422222222222546
-795.0545505420038	0.017777777777777778
-795.5354719037309	0.011888888888885655
-796.0164168246334	0.033111111111114346
-796.4973853064505	0.002999999999996766
-796.9783773509082	0.06477777777778101
-797.4593929597368	0.08200000000000324
-797.9404321346666	0.018666666666669902
-798.4214948774369	0.036888888888885654
-798.9025811897736	0.02522222222221899
-799.3836910734115	0.039555555555553935
-799.8648245300809	0.005111111111109495
-800.3459815615166	0.005111111111109495
-800.8271621694489	0.05655555555555717
-801.3083663556126	0.027666666666668283
-801.7895941217425	0.04533333333333657
-802.2708454695688	-0.054222222222225454
-802.752120400822	-0.036000000000001614
-803.2334189172411	-0.0462222222222206
-803.714741020561	0.014444444444444444
-804.1960867125118	-0.0015555555555571724
-804.6774559948284	-0.06266666666666829
-805.1588488692455	0.029666666666663434
-805.6402653374979	-0.011444444444447678
-806.1217054013158	0.01711111111111273
-806.6031690624428	-0.006000000000001617
-807.0846563226091	0.044111111111107874
-807.5661671835452	-0.02666666666666667
-808.0477016469945	0.02655555555555717
-808.529259714683	-0.021000000000001618
-809.0108413883585	-0.006777777777776161
-809.492446669747	-0.042222222222222223
-809.9740755605875	0.027111111111112727
-810.4557280626192	-0.027666666666668283
-810.9374041775724	-0.01677777777777616
-811.4191039071861	-0.0065555555555571726
-811.9008272532038	0.0012222222222206054
-812.3825742173516	0.006666666666666667
-812.8643448013684	0.0016666666666666668
-813.3461390069976	-0.007666666666668284
-813.8279568359742	-0.016333333333330098
-814.3097982900326	0.012333333333331717
-814.791663370912	0.057777777777777775
-815.2735520803471	0.07566666666666505
-815.7554644200815	0.07088888888889212
-816.2374003918538	-0.028555555555552323
-816.7193599973991	0.052666666666668284
-817.2013432384564	0.02
-817.6833501167603	0.04955555555555394
-818.1653806340586	0.03588888888889212
-818.6474347920818	0.00433333333333495
-819.1295125925774	0.02
-819.6116140372759	0.04611111111111111
