-194.58567678570358	-0.5488555555555569
-195.03763278408286	-0.3311777777777752
-195.48961024557985	-0.35297555555555543
-195.9416091717168	-0.29393777777777963
-196.3936295640333	-0.27767999999999626
-196.84567142404936	-0.3456911111111064
-197.2977347533024	-0.3389311111111116
-197.74981955331899	-0.3477844444444458
-198.20192582562348	-0.5370200000000073
-198.6540535717533	-0.3445311111111126
-199.10620279323282	-0.32649555555555304
-199.5583734915973	-0.3502777777777778
-200.0105656683733	-0.3650266666666721
-200.46277932508949	-0.3277111111111137
-200.91501446328328	-0.33513999999999616
-201.36727108447695	-0.3943222222222216
-201.81954919021	-0.3259155555555561
-202.27184878200688	-0.35662222222222123
-202.72416986139842	-0.3007288888888919
-203.17651242992207	-0.38225555555555424
-203.6288764891	-0.3021755555555622
-204.0812620404762	-0.24667777777778005
-204.53366908557277	-0.3224022222222185
-204.98609762592068	-0.2562711111111114
-205.4385476630595	-0.3206688888888877
-205.8910191985136	-0.35757111111110945
-206.34351223382254	-0.3314311111111116
-206.79602677051503	-0.347075555555558
-207.24856281011984	-0.38292222222221933
-207.7011203541787	-0.39483111111111713
-208.15369940421377	-0.3746399999999994
-208.60629996176903	-0.31260888888889493
-209.058922028371	-0.3671977777777809
-209.51156560555057	-0.27065555555555976
-209.9642306948495	-0.44117999999999785
-210.41691729779214	-0.27890222222221683
-210.86962541592243	-0.35528888888889115
-211.32235505076255	-0.33677111111111624
-211.77510620385863	-0.3533377777777787
-212.22787887673718	-0.23635555555555685
-212.68067307093128	-0.2858377777777787
-213.13348878798266	-0.41836000000000545
-213.5863260294157	-0.2848355555555544
-214.03918479677648	-0.4832511111111105
-214.4920650915959	-0.4012111111111153
-214.9449669154005	-0.3856977777777825
-215.39789026973855	-0.3667844444444442
-215.85083515613658	-0.4092555555555575
-216.30380157613635	-0.41975999999999963
-216.75678953126874	-0.38099555555555625
-217.20979902306678	-0.2668111111111082
-217.6628300530766	-0.314602222222222
-218.11588262282254	-0.17536444444444593
-218.5689567338507	-0.2755088888888956
-219.02205238769415	-0.3190977777777799
-219.47516958588594	-0.26074888888888786
-219.9283083299656	-0.28118666666667397
-220.38146862146843	-0.38355333333333774
-220.8346504619361	-0.3004155555555594
-221.28785385290172	-0.2865088888888891
-221.74107879590048	-0.2593022222222175
-222.19432529247416	-0.29617111111111527
-222.64759334415578	-0.35698888888888985
-223.1008829524893	-0.37245111111110923
-223.55419411900988	-0.34482000000000373
-224.00752684524844	-0.3510688888888884
-224.46088113275542	-0.38996666666666796
-224.91425698305733	-0.36743111111111326
-225.36765439770463	-0.28027333333333243
-225.82107337822816	-0.23038666666667268
-226.27451392616317	-0.26036666666666863
-226.72797604305794	-0.2675155555555587
-227.18145973044113	-0.23982666666667177
-227.6349649898632	-0.3476377777777816
-228.08849182285934	-0.28448222222222186
-228.54204023096048	-0.25553555555555146
-228.99561021571915	-0.3744111111111124
-229.44920177866416	-0.3299911111111093
-229.90281492134366	-0.3211755555555606
-230.35644964529726	-0.3190444444444438
-230.81010595205586	-0.30552000000000085
-231.26378384316985	-0.35224666666666354
-231.71748332017228	-0.30694666666666715
-232.1712043846136	-0.2742888888888895
-232.62494703802685	-0.3147266666666676
-233.0787112819494	-0.28078666666667335
-233.5324971179339	-0.34816888888888775
-233.986304547509	-0.3240044444444437
-234.44013357222732	-0.33490000000000386
-234.89398419362408	-0.29330444444444664
-235.34785641323884	-0.2581999999999971
-235.80175023262203	-0.2796955555555582
-236.2556656533045	-0.3397511111111089
-236.7096026768367	-0.3011111111111111
-237.16356130476035	-0.27362666666666985
-237.61754153861068	-0.2217177777777801
-238.0715433799403	-0.3120399999999952
-238.52556683028004	-0.30095111111111084
-238.97961189118686	-0.22441777777778044
-239.43367856419383	-0.24806444444444625
-239.88776685084264	-0.21677555555556158
-240.3418767526859	-0.40223999999999555
-240.7960082712545	-0.2983000000000013
-241.25016140810536	-0.34542666666667277
-241.7043361647715	-0.3114311111111116
-242.15853254280555	-0.3935133333333296
-242.61275054374707	-0.3668844444444403
-243.0669901691356	-0.4177933333333365
-243.52125142052373	-0.36074666666666516
-243.9755342994467	-0.36857777777777906
-244.42983880746144	-0.4193644444444443
-244.8841649461031	-0.26696222222221777
-245.33851271691785	-0.3624511111111092
-245.79288212145389	-0.22982444444444103
-246.24727316125296	-0.2678844444444419
-246.70168583786327	-0.20704444444444864
-247.15612015283094	-0.2965955555555572
-247.61057610769552	-0.26329777777777863
-248.06505370400956	-0.16030000000000452
-248.51955294331268	-0.27547333333333274
-248.97407382715957	-0.288086666666673
-249.42861635708982	-0.2747511111111089
-249.8831805346495	-0.31773333333333237
-250.33776636138907	-0.26123555555555666
-250.79237383885018	-0.2384288888888841
-251.24700296858546	-0.3425911111111054
-251.7016537521388	-0.2556311111111184
-252.15632619105412	-0.3676533333333403
-252.61102028688612	-0.3706600000000051
-253.06573604117224	-0.21103111111111097
-253.52047345547157	-0.264588888888886
-253.97523253132582	-0.27646444444445173
-254.43001327027892	-0.23385777777777145
-254.88481567388556	-0.291024444444443
-255.33963974368754	-0.23817333333333307
-255.79448548124174	-0.33914888888889333
-256.24935288809206	-0.3336022222222204
-256.7042419657803	-0.11803555555555148
-257.1591527158676	-0.2486088888888965
-257.6140851398914	-0.1473155555555584
-258.0690392394087	-0.22878222222222475
-258.5240150159676	-0.1843844444444403
-258.9790124711121	-0.1578933333333326
-259.43403160639696	-0.17973555555555018
-259.8890724233682	-0.2271600000000035
-260.34413492358055	-0.15382666666667016
-260.7992191085802	-0.2561244444444391
-261.254324979913	-0.18323777777778255
-261.70945253914044	-0.15012222222222288
-262.16460178779977	-0.2670022222222178
-262.6197727274523	-0.16502444444444134
-263.0749653596462	-0.01057333333332887
-263.5301796859234	-0.13689111111110833
-263.98541570784704	-0.014522222222221898
-264.44067342695905	-0.038593333333337795
-264.89595284481845	0.0522066666666635
-265.35125396297354	0.11163999999999456
-265.8065767829703	0.04632666666667016
-266.26192130636787	0.11698666666666718
-266.7172875347123	0.005768888888883844
-267.17267546956265	0.15138888888888888
-267.6280851124629	0.10044000000000071
-268.08351646497204	0.03434444444444024
-268.53896952864056	0.197075555555558
-268.9944443050145	0.21959777777777667
-269.4499407956594	0.30449777777778053
-269.90545900211276	0.3124288888888906
-270.3609989259423	0.37003333333333205
-270.816560568694	0.3294088888888978
-271.2721439319184	0.31336888888888
-271.7277490171745	0.46014444444444963
-272.18337582601055	0.5522555555555543
-272.63902435998784	0.45270666666666837
-273.0946946206546	0.5365577777777798
-273.55038660956336	0.5283977777777829
-274.0061003282733	0.5751777777777817
-274.4618357783347	0.6271822222222141
-274.9175929613046	0.9339799999999943
-275.3733718787398	0.7992133333333348
-275.8291725321865	0.7291688888888812
-276.28499492320793	0.8401133333333322
-276.7408390533547	0.7482066666666651
-277.19670492418584	1.0174488888888866
-277.652592537256	0.954711111111117
-278.1085018941135	1.142304444444437
-278.56443299632394	0.9869755555555619
-279.0203858454355	1.0823066666666676
-279.4763604430117	1.1426666666666603
-279.93235679060496	1.0900911111111053
-280.3883748897658	1.2723466666666596
-280.8444147420598	1.0389044444444395
-281.3004763490374	1.1840399999999984
-281.7565597122598	1.2580422222222194
-282.21266483328174	1.4683177777777827
-282.6687917136558	1.369211111111104
-283.1249403549498	1.599393333333331
-283.58111075870755	1.389017777777788
-284.03730292649897	1.3923466666666597
-284.4935168598746	1.2789177777777756
-284.94975256039123	1.5976088888888869
-285.4060100296145	1.5223599999999957
-285.86228926909047	1.5145266666666592
-286.31859028038906	1.6011755555555607
-286.774913065065	1.5336288888888925
-287.2312576246688	1.6187711111111114
-287.6876239607724	1.8317133333333349
-288.14401207492193	1.792075555555558
-288.6004219686874	1.837404444444433
-289.05685364362125	1.7706511111111225
-289.5133071012827	1.8127200000000043
-289.96978234323507	1.7013777777777837
-290.42627937103094	1.899191111111108
-290.8827981862381	1.8493333333333268
-291.33933879041354	1.8318377777777721
-291.795901185114	1.8582022222222199
-292.25248537190305	1.869595555555554
-292.7090913523375	1.7496222222222262
-293.1657191279852	1.8524377777777652
-293.62236870040084	1.9622777777777811
-294.0790400711413	1.76038444444445
-294.5357332417766	1.854446666666659
-294.99244821385923	1.997453333333332
-295.4491849889592	1.8247466666666636
-295.905943568629	1.9791266666666585
-296.36272395443643	1.9288533333333422
-296.8195261479427	1.9128488888888873
-297.2763501507027	1.8197533333333398
-297.7331959642883	1.77335555555556
-298.19006359025224	1.7057466666666572
-298.6469530301644	1.8918377777777722
-299.1038642855839	1.8880799999999969
-299.5607973580697	1.702768888888887
-300.01775224919186	1.7244311111111084
-300.47472896050505	1.9049000000000038
-300.9317274935792	1.6731977777777745
-301.38874784997563	1.6766888888888933
-301.84579003125333	1.6411222222222164
-302.3028540389823	1.5641333333333347
-302.7599398747172	1.6566355555555492
-303.2170475400324	1.5542577777777722
-303.6741770364869	1.5818822222222095
-304.131328365642	1.590713333333325
-304.5885015290654	1.3976688888888908
-305.0456965283184	1.54124666666667
-305.5029133649688	1.4604533333333287
-305.96015204058205	1.640626666666665
-306.41741255671513	1.5636355555555526
-306.87469491494454	1.4718088888888856
-307.3319991168228	1.4811822222222206
-307.7893251639263	1.4449266666666598
-308.24667305781423	1.4432866666666653
-308.7040428000499	1.4386822222222206
-309.1614343922076	1.5483977777777829
-309.61884783584213	1.4970066666666793
-310.076283132532	1.4222488888888782
-310.5337402838342	1.2801822222222108
-310.9912192913122	1.317857777777778
-311.4487201565444	1.474177777777772
-311.90624288108575	1.5065244444444479
-312.36378746651036	1.4862511111111154
-312.82135391438175	1.6061622222222245
-313.2789422262655	1.4670844444444486
-313.73655240373364	1.3043422222222176
-314.19418444834747	1.4580777777777822
-314.6518383616791	1.2997488888888782
-315.10951414529626	1.233511111111115
-315.5672118007624	1.2524466666666558
-316.0249313296495	1.2501911111111015
-316.4826727335211	1.318435555555544
-316.94043601395146	1.3535555555555523
-317.39822117250606	1.3776577777777694
-317.8560282107506	1.318133333333325
-318.3138571302593	1.3262977777777836
-318.7717079325934	1.2414622222222291
-319.22958061933156	1.3993844444444565
-319.6874751920349	1.4091288888888893
-320.14539165227353	1.3601844444444577
-320.6033300016237	1.1796311111111168
-321.0612902416446	1.3987155555555526
-321.5192723739148	1.1092311111111162
-321.97727639999556	1.3221933333333193
-322.4353023214676	1.1703311111111059
-322.89335013989654	1.340126666666652
-323.35141985684584	1.3575488888888827
-323.809511473894	1.1899355555555504
-324.2676249926068	1.2371400000000075
-324.72576041456256	1.451153333333334
-325.18391774132493	1.2253711111110979
-325.64209697446375	1.2624622222222226
-326.10029811555756	1.2012511111111155
-326.5585211661699	1.3143355555555576
-327.0167661278793	1.2642955555555657
-327.4750330022557	1.2848577777777812
-327.93332179086246	1.1929155555555513
-328.3916324952848	1.0950822222222147
-328.8499651170839	1.0956355555555557
-329.30831965783835	1.2517755555555534
-329.76669611912024	1.1714133333333303
-330.2250945024952	1.07875333333333
-330.6835148095483	1.0162044444444311
-331.1419570418386	1.0226066666666722
-331.60042120094914	1.4052400000000005
-332.0589072884519	1.310457777777774
-332.51741530591255	1.2491888888888933
-332.97594525491394	1.1475555555555588
-333.4344971370217	1.2964111111111156
-333.89307095381884	1.1696511111111128
-334.35166670687295	1.1691488888888852
-334.8102843977541	1.3459733333333377
-335.2689240280473	1.0946066666666754
-335.72758559931606	1.356771111111108
-336.1862691131433	1.1178088888888953
-336.644974571101	1.0800311111111174
-337.1037019747592	1.0443266666666668
-337.5624513257008	1.1401977777777776
-338.02122262549136	0.9835422222222324
-338.4800158757182	1.114897777777773
-338.9388310779491	1.3412688888888806
-339.39766823375606	1.2280666666666609
-339.85652734472643	1.2533177777777826
-340.3154084124214	1.2008355555555479
-340.77431143843046	1.0860422222222323
-341.2332364243257	1.1030688888888915
-341.69218337167484	1.0890444444444438
-342.15115228206736	1.151455555555553
-342.6101431570688	1.0848688888888864
-343.0691559982643	1.1680977777777783
-343.52819080722816	1.1737622222222206
-343.9872475855324	1.023657777777779
-344.44632633476215	1.1319711111111004
-344.9054270564873	1.164711111111117
-345.3645497522931	1.1264644444444436
-345.8236944237515	1.0471266666666552
-346.28286107244105	1.0539622222222291
-346.74204969994264	1.0624644444444533
-347.2012603078305	1.1590133333333263
-347.66049289768756	1.096037777777771
-348.1197474710881	0.9380688888888916
-348.57902402961065	1.0341955555555533
-349.0383225748382	1.1269311111111084
-349.49764310834286	0.9824888888888947
-349.9569856317119	1.0533644444444508
-350.41635014651735	0.9521511111111128
-350.87573665434434	1.080908888888888
-351.33514515676933	0.9225466666666681
-351.79457565536876	1.0281355555555556
-352.25402815172765	0.963288888888896
-352.71350264742256	0.903348888888884
-353.17299914403844	0.897722222222219
-353.63251764315186	0.9473688888888865
-354.0920581463392	0.9643377777777722
-354.55162065518766	1.0226333333333282
-355.0112051712738	1.163477777777783
-355.4708116961826	1.1278733333333446
-355.93044023149486	1.0876066666666722
-356.39009077878274	1.0932599999999932
-356.84976333964	0.9809711111111068
-357.3094579156387	1.100457777777774
-357.7691745083682	0.8133444444444387
-358.2289131194051	0.9303488888888872
-358.6886737503279	1.0160066666666696
-359.14845640272824	0.9568599999999989
-359.6082610781803	1.0223488888888743
-360.0680877782715	0.7837155555555526
-360.52793650458244	0.8987888888888927
-360.9878072586919	0.9307177777777865
-361.4477000421891	0.9294933333333272
-361.90761485665286	0.6959533333333416
-362.3675517036703	1.1539311111111117
-362.8275105848223	1.016751111111112
-363.2874915016873	0.9829999999999968
-363.7474944558571	0.9876377777777735
-364.207519448908	0.9590622222222251
-364.6675664824338	0.8891977777777841
-365.127635558011	0.8968644444444444
-365.58772667722025	0.9746977777777809
-366.04783984165755	1.00374000000001
-366.50797505289506	0.955424444444442
-366.96813231252645	0.8559466666666655
-367.42831162213474	0.9175844444444454
-367.8885129832984	0.9749688888888826
-368.3487363976114	0.9504977777777822
-368.80898186665	0.9350400000000082
-369.2692493920103	0.9481622222222278
-369.7295389752707	1.041280000000002
-370.1898506180165	1.0032688888888839
-370.650184321837	0.7872244444444368
-371.1105400883131	0.7657555555555478
-371.57091791903844	0.7770466666666551
-372.03131781559597	0.6801688888888909
-372.49173977956656	0.825135555555559
-372.9521838125461	0.9220688888888819
-373.41264991611314	0.8207400000000133
-373.8731380918637	0.8748866666666678
-374.33364834137853	0.9896133333333355
-374.79418066624055	0.7468622222222298
-375.25473506804786	0.8014866666666705
-375.7153115483769	0.9881444444444464
-376.175910108828	0.7525800000000001
-376.63653075097534	0.9027644444444417
-377.0971734764193	0.7495000000000033
-377.55783828674055	0.6789977777777757
-378.0185251835264	0.887480000000004
-378.4792341683706	0.8236866666666659
-378.93996524285615	0.7292622222222336
-379.40071840857894	0.7319422222222298
-379.8614936671241	0.8248644444444411
-380.32229102007454	0.9398822222222225
-380.7831104690306	0.762466666666668
-381.2439520155708	0.8713977777777796
-381.7048156612955	0.7989822222222089
-382.1657014077876	0.9500266666666559
-382.62660925663437	0.8494066666666671
-383.08753920943604	0.8624088888888946
-383.5484912677691	0.683435555555544
-384.0094654332361	0.7633466666666694
-384.4704617074219	0.8211244444444472
-384.93148009191395	0.7387355555555486
-385.39252058831033	0.802068888888882
-385.85358319819613	0.7697311111111129
-386.31466792316513	0.9532555555555478
-386.77577476480894	0.740364444444454
-387.23690372471486	0.7964822222222089
-387.69805480448093	0.8552444444444457
-388.1592280056902	0.7096999999999954
-388.6204233299428	0.8235377777777709
-389.08164077882833	0.7350577777777734
-389.54288035393176	0.7708333333333334
-390.0041420568578	0.8958044444444305
-390.4654258891872	0.6364222222222209
-390.9267318525224	0.8334333333333295
-391.38805994845063	0.6652622222222271
-391.84941017856136	0.6825800000000001
-392.3107825444549	0.8394822222222218
-392.7721770477185	0.7576933333333323
-393.23359368995244	0.9037400000000101
-393.69503247274616	0.823637777777767
-394.156493397687	0.8959333333333295
-394.6179764663816	0.866853333333339
-395.0794816804108	0.902924444444442
-395.54100904138147	0.8146199999999953
-396.00255855087863	0.9581755555555639
-396.46413021049824	0.8864377777777716
-396.9257240218384	0.8256955555555598
-397.3873399864864	0.6994933333333271
-397.84897810604895	0.7823888888888825
-398.3106383821113	0.8845644444444527
-398.7723208162693	0.6966199999999986
-399.23402541012325	0.7438911111111035
-399.6957521652626	0.821597777777788
-400.15750108328984	0.8318333333333269
-400.61927216579863	1.041993333333327
-401.08106541437854	0.7459200000000096
-401.5428808306341	0.5813311111111155
-402.00471841615257	0.6664733333333344
-402.46657817254084	0.6284533333333416
-402.92846010139044	0.713962222222229
-403.39036420429517	0.561873333333335
-403.8522904828575	0.6747355555555583
-404.31423893866685	0.8024866666666639
-404.7762095733278	0.6328977777777861
-405.238202388432	0.7251066666666722
-405.70021738558626	0.8207488888888879
-406.1622545663778	0.5888733333333382
-406.62431393240695	0.7964266666666663
-407.0863954852761	0.7953688888888832
-407.5484992265748	0.7479933333333206
-408.0106251579119	0.859157777777776
-408.47277328088114	0.8289511111111237
-408.9349435970765	0.8766933333333226
-409.39713610810236	0.7626088888888868
-409.85935081555266	0.7361644444444392
-410.3215877210341	0.8739911111110996
-410.7838468261427	0.7284266666666533
-411.24612813247	0.686677777777772
-411.70843164162716	0.7274377777777651
-412.17075735520143	0.804386666666671
-412.63310527480616	0.6690733333333466
-413.09547540203505	0.8236511111111192
-413.55786773848195	0.7630755555555515
-414.0202822857579	0.8705555555555555
-414.48271904545237	0.8543244444444361
-414.9451780191766	0.7552666666666725
-415.4076592085263	0.6409911111111029
-415.8701626150998	0.8653888888888953
-416.3326882405038	0.8500066666666761
-416.79523608633207	0.7678288888888912
-417.25780615419364	0.7419488888888737
-417.7203984456865	0.6542466666666668
-418.18301296240884	0.7254133333333367
-418.6456497059696	0.7965444444444438
-419.1083086779626	0.7879022222222153
-419.5709898799967	0.8670111111111085
-420.03369331367446	0.8002200000000044
-420.4964189805896	0.6321844444444449
-420.9591668823554	0.7072799999999956
-421.4219370205635	0.797211111111117
-421.88472939682936	0.7333977777777828
-422.34754401274677	0.7614666666666583
-422.8103808699181	0.7125177777777814
-423.27323996995455	0.6430022222222114
-423.7361213144521	0.6631333333333249
-424.19902490501954	0.6576533333333403
-424.6619507432595	0.7093133333333309
-425.12489883077006	0.5607711111110985
-425.58786916916443	0.5425066666666761
-426.05086176003863	0.6308333333333334
-426.51387660500376	0.7774177777777853
-426.97691370566224	0.7659822222222121
-427.43997306361445	0.7199888888888947
-427.9030546804714	0.6413888888888889
-428.3661585578313	0.6075400000000082
-428.8292846973095	0.5746088888888901
-429.292433100502	0.618159999999997
-429.7556037690157	0.7241288888888893
-430.2187967044615	0.6758466666666694
-430.6820119084355	0.665633333333325
-431.1452493825554	0.5488444444444516
-431.60850912842125	0.7635333333333256
-432.0717911476357	0.7660555555555523
-432.5350954418141	0.5196977777777809
-432.9984220125525	0.7524533333333319
-433.46177086146844	0.7553866666666647
-433.92514199015784	0.5174444444444413
-434.38853540023626	0.5072444444444489
-434.85195109331045	0.5943844444444403
-435.3153890709785	0.5150111111111053
-435.7788493348602	0.5822333333333275
-436.24233188655154	0.5818711111111042
-436.7058367276723	0.734211111111104
-437.16936385982274	0.6873755555555625
-437.6329132846097	0.8735488888888924
-438.0964850036464	0.5648044444444531
-438.56007901853536	0.5209222222222242
-439.02369533089416	0.5267399999999907
-439.4873339423253	0.5836688888888845
-439.95099485443336	0.5490111111111118
-440.414678068836	0.5777733333333325
-440.87838358713776	0.5629688888888793
-441.3421114109499	0.5728866666666645
-441.80586154188336	0.5795266666666753
-442.2696339815386	0.5259911111111029
-442.7334287315375	0.5032977777777867
-443.1972457934826	0.500553333333341
-443.66108516898703	0.42388888888888887
-444.12494685966203	0.5722666666666596
-444.58883086711216	0.5318844444444403
-445.05273719295514	0.5051177777777776
-445.51666583879336	0.5234933333333336
-445.98061680624875	0.3475844444444455
-446.444590096926	0.4651733333333363
-446.9085857124297	0.4570666666666673
-447.3726036543862	0.5814088888888849
-447.8366439243913	0.6728200000000005
-448.3007065240715	0.4476022222222107
-448.76479145502907	0.6105088888888874
-449.2288987188752	0.5813399999999901
-449.69302831722763	0.47801777777777815
-450.157180251693	0.4598355555555544
-450.62135452389117	0.5084888888888882
-451.08555113543105	0.4784844444444429
-451.54977008791735	0.5210622222222122
-452.0140113829763	0.4977488888888911
-452.47827502221037	0.577957777777774
-452.94256100724374	0.6126933333333323
-453.4068693396809	0.6888333333333301
-453.8712000211331	0.5899577777777772
-454.33555305322227	0.6395866666666633
-454.7999284375574	0.4934822222222283
-455.26432617575387	0.5316511111111161
-455.72874626942934	0.4484644444444469
-456.19318872018846	0.6490444444444438
-456.65765352965536	0.711757777777772
-457.12214069943684	0.6749911111111093
-457.5866502311548	0.6565844444444358
-458.0511821264226	0.5175155555555506
-458.5157363868469	0.5793133333333309
-458.9803130140564	0.5148711111111172
-459.4449120096556	0.6577866666666685
-459.90953337526634	0.6042600000000028
-460.3741771125043	0.6952577777777817
-460.8388432229783	0.544662222222218
-461.3035317083125	0.6237955555555527
-461.7682425701159	0.618597777777775
-462.2329758100126	0.6076999999999922
-462.6977314296115	0.6389777777777798
-463.16250943053467	0.7119600000000031
-463.6273098143997	0.8059444444444428
-464.0921325828155	0.6621777777777849
-464.5569777374085	0.761488888888885
-465.02184527978966	0.7541466666666626
-465.48673521158105	0.7444977777777806
-465.9516475343981	0.736717777777772
-466.4165822498541	0.8326866666666723
-466.8815393595732	0.7712977777777835
-467.3465188651687	0.6108599999999973
-467.81152076826686	0.7360888888888844
-468.2765450704789	0.5905799999999969
-468.74159177342017	0.7461777777777752
-469.20666087871916	0.7454133333333286
-469.6717523879849	0.6321911111111048
-470.13686630284576	0.7341088888888933
-470.60200262491514	0.8449511111111092
-471.0671613558106	0.6944022222222217
-471.53234249715626	0.8078111111111098
-471.9975460505677	0.7800777777777774
-472.46277201766884	0.6912888888888847
-472.9280204000775	0.7718555555555536
-473.39329119940913	0.770586666666673
-473.85858441729425	0.9128555555555552
-474.3239000553419	0.8768822222222257
-474.78923811518274	0.9270577777777766
-475.25459859843215	0.9226022222222188
-475.71998150670566	0.9141399999999945
-476.18538684163605	0.9730733333333289
-476.65081460483447	0.9321955555555501
-477.1162647979293	1.026744444444444
-477.58173742254047	0.8388311111111155
-478.0472324802834	1.022486666666672
-478.51274997278654	0.9826311111111136
-478.9782899016675	0.9623733333333317
-479.44385226855474	1.0899222222222225
-479.90943707506597	0.9726511111111096
-480.37504432282094	1.1525155555555586
-480.8406740134481	1.2640044444444438
-481.30632614856296	1.140606666666661
-481.77200072979826	1.1445000000000032
-482.23769775876957	1.3997377777777809
-482.70341723709873	1.3151911111111096
-483.1691591664165	1.3637555555555527
-483.63492354833824	1.4959977777777789
-484.1007103844946	1.5085555555555523
-484.56651967650765	1.598242222222228
-485.0323514259949	1.4868399999999948
-485.4982056345892	1.5995911111111087
-485.96408230390824	1.6375244444444412
-486.4299814355826	1.635739999999997
-486.8959030312342	1.785828888888888
-487.36184709248295	1.9052511111111057
-487.8278136209637	2.081657777777776
-488.2938026182899	2.1053822222222194
-488.75981408609636	2.2223555555555583
-489.2258480260008	2.171784444444444
-489.691904439636	2.171733333333331
-490.1579833286262	2.4595577777777766
-490.62408469459103	2.5169222222222176
-491.09020853916337	2.4858999999999973
-491.55635486396307	2.7100311111111175
-492.02252367062505	2.8194777777777764
-492.4887149607713	3.1932822222222197
-492.95492873602154	3.2479488888888914
-493.42116499801523	3.601131111111115
-493.8874237483699	3.698559999999998
-494.35370498871833	4.127428888888891
-494.82000872068477	4.402926666666665
-495.28633494589326	4.618462222222216
-495.75268366598095	4.794293333333335
-496.21905488256334	5.2564555555555526
-496.68544859727973	5.659104444444448
-497.15186481175425	5.96847555555556
-497.6183035276089	6.45825111111111
-498.08476474648074	6.889044444444444
-498.55124846999183	7.673564444444451
-499.01775469977713	7.910655555555552
-499.48428343746286	8.319444444444445
-499.9508346846732	8.91508888888889
-500.41740844304326	9.227239999999995
-500.88400471419914	9.438288888888888
-501.35062349977375	9.610026666666664
-501.81726480139554	9.847704444444446
-502.2839286206865	10.112697777777777
-502.75061495929026	10.001760000000003
-503.2173238188244	10.18734666666666
-503.68405520092836	9.893166666666666
-504.1508091072283	9.59952888888889
-504.61758553935283	9.385182222222227
-505.08438449893686	9.001544444444443
-505.55120598760664	8.739804444444445
-506.0180500070016	8.435288888888891
-506.48491655874574	7.910877777777778
-506.95180564446764	7.4501977777777775
-507.41871726580655	7.018277777777775
-507.88565142438887	6.573453333333333
-508.3526081218494	5.985068888888887
-508.8195873598211	5.74577555555556
-509.28658913993024	5.235022222222218
-509.75361346381396	4.815673333333333
-510.2206603331029	4.5473666666666634
-510.68772974943204	4.2325200000000045
-511.15482171443193	3.8478600000000007
-511.62193622973336	3.681439999999994
-512.0890732969756	3.174851111111105
-512.5562329177849	3.086231111111111
-513.0234150938005	2.8731088888888916
-513.4906198266532	2.6374755555555587
-513.9578471179736	2.575566666666669
-514.4250969694032	2.4494511111111126
-514.8923693825683	2.1947599999999996
-515.359664359108	2.1150155555555585
-515.8269819006576	2.1016222222222214
-516.2943220088432	1.8340377777777759
-516.7616846853108	1.7958911111111067
-517.2290699316843	1.6841177777777758
-517.6964777496096	1.605997777777779
-518.163908140711	1.5329488888888914
-518.631361106634	1.3130688888888835
-519.0988366490074	1.399831111111117
-519.566334769466	1.2346711111111088
-520.0338554696514	1.3159444444444428
-520.5013987511918	1.368020000000001
-520.9689646157333	1.260106666666664
-521.4365530649043	1.141200000000002
-521.9041641003398	1.1387288888888887
-522.3717977236855	1.1211444444444432
-522.8394539365678	0.9549822222222267
-523.3071327406303	0.9253533333333326
-523.7748341375102	0.9352066666666683
-524.2425581288381	0.9883577777777747
-524.7103047162577	1.008166666666665
-525.1780739014017	0.7934111111111107
-525.6458656859161	0.8586644444444472
-526.1136800714314	0.8691355555555492
-526.5815170595826	0.6638844444444435
-527.0493766520176	0.836899999999999
-527.5172588503651	0.877277777777781
-527.9851636562729	0.7884200000000015
-528.4530910713738	0.7559844444444429
-528.921041097303	0.663159999999997
-529.3890137357082	0.6788977777777796
-529.8570089882202	0.5780133333333328
-530.3250268564869	0.5155822222222196
-530.7930673421413	0.5219533333333352
-531.2611304468224	0.6834044444444428
-531.7292161721742	0.5463333333333301
-532.1973245198315	0.6947177777777769
-532.6654554914422	0.5250444444444454
-533.1336090886414	0.37273555555555504
-533.601785313064	0.49647777777777974
-534.0699841663625	0.4530755555555596
-534.5382056501651	0.4568444444444402
-535.0064497661222	0.461475555555557
-535.4747165158728	0.42974666666666356
-535.9430059010523	0.4229799999999927
-536.4113179233105	0.39239777777778123
-536.8796525842805	0.37467777777777683
-537.3480098856102	0.3962155555555526
-537.8163898289408	0.34815555555555167
-538.2847924159098	0.4247999999999997
-538.7532176481628	0.3628377777777819
-539.2216655273393	0.3518266666666669
-539.6901360550871	0.2615577777777718
-540.1586292330456	0.346279999999994
-540.6271450628542	0.36660444444444795
-541.0956835461608	0.290397777777778
-541.5642446846047	0.42344888888888815
-542.0328284798338	0.18654666666666647
-542.5014349334875	0.2960111111111069
-542.9700640472074	0.28259777777778156
-543.4387158226458	0.285208888888891
-543.9073902614354	0.31635555555555683
-544.3760873652284	0.27650222222222104
-544.8448071356644	0.3675355555555547
-545.3135495743911	0.19314666666666097
-545.7823146830525	0.2527866666666685
-546.2511024632898	0.20964444444444477
-546.7199129167511	0.2080044444444421
-547.1887460450778	0.2744666666666631
-547.6576018499223	0.2624155555555545
-548.1264803329261	0.22730888888889036
-548.5953814957263	0.13557555555555964
-549.0643053399817	0.3291000000000026
-549.5332518673296	0.13869777777777925
-550.0022210794199	0.2538022222222207
-550.4712129778986	0.3052955555555511
-550.9402275644072	0.1521866666666675
-551.4092648405979	0.28987333333333176
-551.8783248081123	0.2362777777777794
-552.3474074686026	0.31769111111110965
-552.8165128237125	0.20909555555555723
-553.2856408750857	0.28090444444444274
-553.7547916243768	0.07573999999999716
-554.2239650732248	0.2615755555555612
-554.6931612232867	0.2007355555555518
-555.1623800762037	0.26333777777777867
-555.6316216336218	0.2065822222222212
-556.1008858971953	0.37550444444444214
-556.5701728685659	0.337075555555558
-557.0394825493881	0.15686222222222165
-557.5088149413075	0.09800888888889556
-557.9781700459702	0.16729111111110898
-558.4475478650304	0.15165999999999863
-558.9169484001297	0.07033777777778191
-559.386371652927	0.13943555555555376
-559.8558176250638	0.19431555555555355
-560.32528631819	0.4622488888888862
-560.7947777339583	0.24215777777777273
-561.2642918740142	0.16987777777777713
-561.7338287400167	0.17411111111110789
-562.2033883336073	0.09843111111111487
-562.6729706564339	0.27179555555554946
-563.1425757101575	0.29850666666666154
-563.6122034964175	0.26818222222222377
-564.0818540168725	0.30017777777777355
-564.551527273173	0.25643999999999423
-565.0212232669624	0.28491555555555453
-565.4909419999018	0.36252222222221864
-565.9606834736326	0.3413866666666662
-566.4304476898159	0.2448444444444451
-566.9002346500974	0.27698666666666716
-567.3700443561296	0.32267777777777357
-567.8398768095669	0.14502888888888668
-568.3097320120551	0.15860666666666576
-568.7796099652572	0.19854888888889238
-569.2495106708194	0.1994955555555498
-569.7194341303895	0.239595555555554
-570.1893803456304	0.21475333333333968
-570.659349318184	0.1458022222222159
-571.1293410497154	0.12486000000000382
-571.5993555418705	0.2848355555555544
-572.0693927962996	0.20484222222222243
-572.5394528146655	0.20335999999999735
-573.0095355986142	0.23314666666666098
-573.4796411498047	0.19857999999999365
-573.9497694698848	0.1946755555555622
-574.4199205605177	0.24156000000000252
-574.8900944233535	0.21657777777777584
-575.3602910600403	0.07933999999999489
-575.8305104722433	0.086893333333331
-576.3007526616063	0.1241999999999987
-576.7710176297967	0.026442222222225004
-577.2413053784647	0.10877777777777939
-577.7116159092583	0.22005333333333613
-578.1819492238428	0.11459999999999936
-578.6523053238684	0.14395111111110762
-579.1226842109961	0.019060000000002523
-579.5930858868782	0.16668888888888533
-580.0635103531647	0.08924888888888947
-580.5339576115255	0.24217555555556222
-581.0044276636041	0.12095111111111086
-581.4749205110681	0.31069111111110637
-581.9454361555678	0.20223999999999553
-582.4159745987595	0.29175777777777206
-582.8865358423045	0.2671888888888902
-583.3571198878527	0.23214444444444476
-583.8277267370719	0.21172888888888539
-584.2983563916141	0.24921777777777201
-584.7690088531341	0.11273111111111778
-585.239684123297	0.25049777777778215
-585.710382203751	0.06315777777777434
-586.1811030961655	0.2853222222222232
-586.6518468021932	0.28401555555555713
-587.1226133234903	0.2087955555555527
-587.5934026617203	0.3323977777777812
-588.0642148185354	0.2838333333333301
-588.5350497956055	0.27897111111111167
-589.0059075945825	0.3786688888888845
-589.4767882171211	0.2884911111111109
-589.9476916648932	0.3566955555555534
-590.4186179395447	0.34637111111111557
-590.8895670427494	0.2392733333333308
-591.3605389761575	0.15827555555555994
-591.8315337414301	0.18141555555555292
-592.3025513402324	0.21006666666666407
-592.7735917742168	0.3685400000000017
-593.2446550450552	0.2670466666666632
-593.7157411543999	0.2934533333333335
-594.1868501039118	0.29944666666665903
-594.6579818952584	0.3935111111111069
-595.1291365300922	0.35431777777777623
-595.6003140100827	0.19633777777777545
-596.0715143368888	0.11403111111111583
-596.542737512167	0.2813488888888888
-597.0139835375894	0.16537999999999659
-597.4852524148062	0.2998266666666637
-597.956544145491	0.22614222222222857
-598.427858731303	0.2856777777777784
-598.8991961738965	0.22002222222221868
-599.3705564749457	0.2610288888888883
-599.8419396361027	0.2009733333333295
-600.3133456590438	0.2213222222222248
-600.7847745454213	0.24975111111110893
-601.2562262969005	0.20118444444444322
-601.7277009151491	0.21649555555555303
-602.1991984018235	0.22702444444444458
-602.6707187585978	0.11555555555555555
-603.1422619871244	0.1318844444444403
-603.6138280890793	0.16966222222221808
-604.0854170661194	0.1968311111111123
-604.5570289199077	0.3088600000000022
-605.0286636521159	0.28850000000000164
-605.5003212644011	0.3176444444444415
-605.9720017584369	0.20105333333333772
-606.4437051358823	0.3215355555555531
-606.9154313984005	0.29110666666666574
-607.3871805476632	0.40985777777777305
-607.8589525853293	0.22949111111110446
-608.3307475130752	0.22125333333333805
-608.8025653325572	0.3728111111111098
-609.2744060454429	0.20564000000000104
-609.746269653402	0.2618577777777763
-610.2181561580957	0.19063777777777835
-610.6900655611998	0.06304666666666485
-611.1619978643735	0.1148911111111051
-611.6339530692818	0.05623777777777933
-612.1059311775989	0.0685288888888883
-612.5779321909837	0.005482222222223451
-613.0499561111144	0.11045777777777403
-613.522002939652	0.17637111111111559
-613.9940726782619	0.09195111111111247
-614.4661653286181	0.1523999999999958
-614.9382808923816	0.21652000000000246
-615.4104193712285	0.17193111111111647
-615.8825807668243	0.26907777777777586
-616.3547650808298	0.19176666666666278
-616.8269723149278	0.22012222222222286
-617.2992024707728	0.30053777777778223
-617.7714555500473	0.2616622222222213
-618.2437315544126	0.26570444444444247
-618.7160304855361	0.12186666666666698
-619.1883523450938	0.16742888888889057
-619.660697134749	0.19373555555554858
-620.13306485618	0.2986488888888885
-620.6054555110501	0.18238444444444515
-621.0778691010266	0.12042222222221931
-621.5503056277902	0.23572888888888377
-622.0227650929996	0.19231777777777298
-622.4952474983354	0.11865111111111118
-622.9677528454652	0.15103333333333366
-623.4402811360561	0.12605999999999767
-623.9128323717847	0.16163777777778
-624.3854065543161	0.19716888888888612
-624.8580036853288	0.1922511111111089
-625.3306237664923	0.0856622222222197
-625.8032667994721	0.18645999999999832
-626.2759327859509	0.0866266666666666
-626.7486217275895	0.16806444444444626
-627.2213336260706	0.160855555555552
-627.6940684830619	0.21058444444444224
-628.1668263002308	0.19797111111111007
-628.6396070792599	0.10372666666666595
-629.1124108218147	0.1347444444444409
-629.5852375295735	0.26435333333333905
-630.058087204208	0.2617466666666668
-630.5309598473858	0.17988222222222247
-631.0038554607918	0.16578666666667333
-631.4767740460869	0.19298222222222344
-631.949715604956	0.06494666666666389
-632.4226801390668	0.1732888888888879
-632.8956676500972	0.16835999999999735
-633.3686781397193	0.20057333333332886
-633.841711609605	3.555555555471478e-05
-634.3147680614369	0.19582888888888797
-634.7878474968803	-0.00019777777777764844
-635.260949917618	0.13410222222221718
-635.7340753253238	-0.05099333333333359
-636.2072237216655	0.1290355555555531
-636.680395108332	0.19206444444444465
-637.1535894869845	0.11327555555555996
-637.6268068593121	0.11870666666666188
-638.1000472269844	0.13236444444444917
-638.5733105916712	0.050773333333329194
-639.0465969550617	0.18701999999999921
-639.5199063188232	0.12508888888889083
-639.9932386846386	0.20183111111111227
-640.4665940541819	0.11076444444444658
-640.9399724291247	0.16016888888888287
-641.4133738111522	0.1740888888888892
-641.8867982019359	0.10037333333332854
-642.3602456031609	-0.05237555555556254
-642.8337160165011	0.22202444444444458
-643.3072094436261	0.02887999999999819
-643.7807258862275	0.21291777777777396
-644.2542653459725	0.14149111111110768
-644.7278278245462	0.09738444444444516
-645.2014133236269	0.24071555555555582
-645.6750218448863	0.06310888888889167
-646.1486533900114	0.04915999999999864
-646.6223079606742	0.10153777777777577
-647.0959855585617	0.2972799999999956
-647.5696861853479	0.18892000000000633
-648.0434098427089	0.12992666666666788
-648.517156532334	0.172722222222219
-648.9909262558926	0.12074666666666518
-649.4647190150743	0.10126444444444334
-649.9385348115528	0.18595111111111085
-650.4123736470087	0.11855555555555232
-650.8862355231247	0.160182222222227
-651.3601204415792	0.149164444444444
-651.8340284040569	0.18490222222221847
-652.3079594122363	0.09606888888888837
-652.7819134677934	0.052804444444441795
-653.2558905724176	0.16029111111110575
-653.729890727785	0.066259999999998
-654.2039139355825	0.0017133333333266719
-654.6779601974886	0.12111111111111111
-655.1520295151794	0.022535555555554716
-655.6261218903484	0.07162444444444392
-656.1002373246653	0.0468111111111082
-656.5743758198258	0.022073333333327255
-657.0485373775061	0.12376444444444334
-657.5227219993824	0.1172799999999956
-657.9969296871503	0.1267644444444482
-658.4711604424795	0.21405555555555716
-658.9454142670658	0.12169999999999871
-659.4196911625829	0.028873333333330163
-659.8939911307226	0.11608222222222442
-660.3683141731628	0.14849555555555627
-660.8426602915866	0.041864444444444315
-661.3170294876829	0.10901111111111175
-661.7914217631302	0.10735111111110503
-662.2658371196176	0.05389777777777959
-662.7402755588298	0.07716000000000349
-663.2147370824455	0.0792822222222215
-663.689221692158	0.12856444444445111
-664.1637293896434	0.14457999999999527
-664.6382601765955	0.12781555555555515
-665.1128140546946	0.07628888888888469
-665.5873910256255	0.17098888888888825
-666.0619910910776	0.14052888888888346
-666.5366142527313	0.10504888888889076
-667.0112605122779	0.20066666666666505
-667.4859298714044	0.12286666666666861
-667.9606223317894	0.13219333333333552
-668.4353378951283	0.22626666666666603
-668.9100765630996	0.17518888888888695
-669.3848383373968	0.09453777777778062
-669.8596232197068	0.0768755555555577
-670.3344312117081	-0.038613333333333784
-670.8092623150985	0.002273333333327577
-671.2841165315585	0.07974666666666357
-671.7589938627817	0.0343288888888896
-672.2338943104508	0.03970222222221815
-672.7088178762548	0.04235111111110503
-673.183764561883	-0.007784444444445803
-673.6587343690223	0.03269111111110962
-674.1337272993643	-0.0022022222222181477
-674.608743354596	0.03366888888888449
-675.0837825364019	0.0010088888888923166
-675.5588448464781	-0.050651111111106324
-676.0339302865049	-0.0990711111111159
-676.5090388581823	-0.0029688888888874014
-676.9841705631953	0.0873622222222184
-677.4593254032266	0.13961777777777268
-677.9345033799782	0.11460888888889005
-678.4097044951285	0.07653111111111584
-678.8849287503776	0.04888888888888889
-679.3601761474104	0.018755555555552646
-679.8354466879138	0.06901111111111176
-680.3107403735858	-0.01994444444444121
-680.786057206111	-0.03853555555555633
-681.2613971871875	0.07961111111111273
-681.7367603185022	0.16005777777777339
-682.2121466017401	0.10677111111110814
-682.6875560386053	-0.032833333333336566
-683.1629886307785	-0.017486666666672035
-683.6384443799576	-0.04691555555555776
-684.113923287836	-0.00939333333333909
-684.5894253560965	-0.04114444444444315
-685.0649505864411	-0.03894666666666227
-685.5404989805548	0.08770444444444567
-686.0160705401399	-0.029566666666667313
-686.4916652668811	0.07131111111111144
-686.9672831624697	-0.05279777777778185
-687.4429242286059	-0.036779999999998834
-687.9185884669744	-0.12604666666666162
-688.3942758792797	-0.10815777777777436
-688.8699864672043	-0.04107777777777907
-689.3457202324506	-0.10414222222222533
-689.8214771767098	0.044808888888890376
-690.297257301669	0.047824444444437786
-690.7730606090347	-0.07340666666666544
-691.2488871004896	-0.010131111111113568
-691.724736777736	0.11136222222221678
-692.200609642465	-0.0732711111111146
-692.676505696379	0.07822000000000116
-693.1524249411607	0.0015466666666664726
-693.6283673785099	-0.08530888888889522
-694.1043330101269	0.06369111111111124
-694.5803218376986	0.03529555555555109
-695.0563338629294	0.008999999999998383
-695.5323690875149	-0.08887333333333017
-696.0084275131466	-0.0742733333333308
-696.4845091415157	0.06014444444444154
-696.960613974331	0.04047111111111008
-697.4367420132794	0.008720000000006015
-697.9128932600655	0.0846866666666675
-698.3890677163805	0.029028888888885072
-698.86526538392	0.02689999999999903
-699.3414862643842	-0.03408888888888921
-699.8177303594688	-0.05321333333333314
-700.2939976708781	0.12049111111110607
-700.770288200299	0.0028444444444418572
-701.246601949436	0.025337777777781918
-701.7229389199848	-0.04860222222222041
-702.1992991136455	0.03233777777777706
-702.6756825321179	0.030148888888886883
-703.1520891770979	-0.05971111111110885
-703.628519050281	0.04697333333333113
-704.1049721533718	0.0008466666666612986
-704.5814484880658	-0.05552666666666887
-705.0579480560675	0.01494444444444121
-705.5344708590682	0.05099111111111092
-706.0110168987721	-0.0331800000000011
-706.4875861768753	-0.05160000000000259
-706.964178695086	-0.05460888888889005
-707.440794455096	-0.06120888888889264
-707.9174334586095	-0.07206222222222196
-708.3940957073221	-0.054142222222225325
-708.8707812029381	0.1000644444444495
-709.3474899471622	0.1201555555555549
-709.8242219416854	0.047551111111105354
-710.300977188221	-0.007062222222221964
-710.777755688456	0.019575555555558014
-711.2545574441032	0.053684444444443216
-711.7313824568585	-0.03124222222222468
-712.2082307284262	-0.019297777777780235
-712.6851022605063	-0.12629999999999805
-713.1619970548032	-0.033979999999994306
-713.638915113017	-0.06846888888888417
-714.1158564368476	-0.13616888888888448
-714.5928210279995	0.08036000000000058
-715.0698088881813	-0.09030000000000453
-715.5468200190887	-0.19933555555554955
-716.0238544224261	-0.0822333333333356
-716.5009120998935	-0.04649999999999838
-716.977993053204	-0.005873333333333398
-717.4550972840533	0.010495555555551416
-717.9322247941457	-0.004486666666667184
-718.4093755851854	0.026468888888889017
-718.8865496588771	-0.04025333333333644
-719.3637470169251	-0.08640222222221686
-719.8409676610379	-0.05809555555555562
-720.3182115929113	-0.029186666666670743
-720.7954788142584	0.050586666666673004
-721.2727693267748	0.0061955555555565905
-721.7500831321736	-0.008842222222228883
-722.2274202321591	0.061853333333339026
-722.7047806284315	-0.11547333333333275
-723.1821643226992	0.02213555555555407
-723.6595713166713	0.00875777777777532
-724.1370016120475	-0.06225333333333967
-724.6144552105366	-0.02893111111111163
-725.0919321138472	-0.11895555555555297
-725.5694323236796	-0.05361333333333378
-726.0469558417466	-0.13731333333332765
-726.5245026697527	-0.012131111111116803
-727.0020728094022	-0.09523777777777771
-727.4796662624082	0.023248888888887854
-727.9572830304705	-0.03878444444444742
-728.4349231152981	-0.011573333333330488
-728.912586518604	-0.08630888888888875
-729.3902732420881	0.08459777777777668
-729.8679832874678	0.05778222222222313
-730.3457166564433	0.029762222222222287
-730.823473350723	-0.150808888888892
-731.3012533720158	-0.04942888888888572
-731.7790567220347	-0.021066666666665696
-732.2568834024842	-0.0044444444444444444
-732.7347334150727	-0.04189777777778444
-733.212606761509	-0.08113111111111519
-733.6905034435065	-0.11152222222222513
-734.1684234627734	-0.034295555555557564
-734.6463668210187	-0.1245222222222219
-735.1243335199466	-0.054108888888893286
-735.6023235612747	-0.0013622222222248739
-736.0803369467071	-0.027657777777777583
-736.5583736779571	-0.10042000000000473
-737.0364337567376	0.006797777777780236
-737.5145171847528	-0.07614222222222856
-737.992623963716	-0.10873333333333399
-738.4707540953402	-0.055828888888887984
-738.948907581334	-0.04298888888889148
-739.4270844234062	-0.1076000000000042
-739.9052846232784	0.02470888888889426
-740.3835081826508	-0.0691177777777759
-740.8617551032362	-0.10280888888889522
-741.3400253867522	-0.0914977777777838
-741.8183190349074	-0.1578288888888912
-742.2966360494192	-0.009039999999998449
-742.774976431992	-0.03699111111110445
-743.2533401843431	-0.002851111111109882
-743.7317273081812	-0.014533333333335273
-744.2101378052195	0.00996666666666796
-744.6885716771794	-0.18645111111110763
-745.1670289257655	-0.09343999999999748
-745.6455095526909	0.004368888888881581
-746.1240135596728	-0.10599111111111091
-746.6025409484243	-0.12435333333333902
-747.0810917206585	-0.04623777777777933
-747.5596658780928	-0.017786666666668477
-748.0382634224356	-0.05750444444444535
-748.5168843554004	-0.040333333333336566
-748.9955286787085	-0.004048888888889148
-749.4741963940733	-0.029282222222221512
-749.9528875032032	-0.023593333333337796
-750.4316020078201	-0.05101111111111499
-750.910339909637	-0.04564666666666097
-751.3891012103668	-0.06895777777777565
-751.8678859117314	-0.17884444444444347
-752.3466940154394	-0.18478222222222637
-752.8255255232082	-0.07831777777777461
-753.3043804367552	0.08286000000000059
-753.7832587577979	-0.031013333333329583
-754.2621604880533	-0.1588244444444394
-754.7410856292348	-0.08646666666666634
-755.2200341830596	-0.09935333333333903
-755.6990061512452	-0.08068666666666913
-756.1780015355046	-0.1758822222222241
-756.6570203375636	-0.04662444444444393
-757.1360625591357	-0.05674888888888947
-757.6151282019335	-0.1173444444444451
-758.0942172676833	-0.1854511111111141
-758.5733297580939	0.0014022222222168541
-759.0524656748911	0.01687555555555769
-759.5316250197924	0.12336222222222003
-760.0108077945107	0.052095555555554
-760.4900140007636	0.007775555555555103
-760.9692436402813	-0.14385777777777145
-761.4484967147683	-0.11755555555555879
-761.927773225955	-0.08314444444444638
-762.4070731755543	-0.09822000000000117
-762.8863965652879	-0.1261666666666699
-763.3657433968777	-0.08795111111111409
-763.8451136720366	0.00754222222222274
-764.3245073924907	-0.06377333333333404
-764.8039245599573	-0.022133333333331392
-765.2833651761582	-0.12394888888889302
-765.7628292428109	-0.02566666666666505
-766.2423167616367	-0.09104000000000168
-766.7218277343578	-0.13069333333333716
-767.2013621626955	-0.1081711111111104
-767.6809200483718	-0.06885555555555685
-768.160501393104	-0.05737555555556254
-768.6401061986181	-0.07015111111110955
-769.1197344666316	-0.12572666666666918
-769.5993861988703	-0.09996888888888256
-770.0790613970476	-0.010128888888890894
-770.5587600628978	-0.026502222222221056
-771.0384821981343	-0.034906666666663824
-771.5182278044829	-0.1631800000000011
-771.9979968836655	-0.10574666666666518
-772.4777894374037	-0.11701555555555387
-772.9576054674235	-0.07376444444445143
-773.4374449754467	-0.007728888888887013
-773.9173079631952	-0.03228666666667171
-774.3971944323904	-0.008900000000002264
-774.8771043847628	-0.007228888888890247
-775.3570378220297	0.03388222222222086
-775.8369947459174	-0.02697999999999916
-776.3169751581473	-0.004757777777776937
-776.7969790604544	-0.1702555555555591
-777.2770064545472	-0.07398222222222507
-777.7570573421606	-0.06892000000000634
-778.2371317250161	-0.11305333333334097
-778.7172296048399	-0.12195333333333515
-779.1973509833623	-0.09915111111110794
-779.6774958622964	0.03146444444444367
-780.157664243377	0.056479999999994306
-780.6378561283256	-0.022695555555554973
-781.1180715188684	-0.04753333333333204
-781.5983104167315	-0.1206622222222197
-782.0785728236451	-0.12229777777778508
-782.5588587413312	-0.10008666666666816
-783.0391681715155	-0.17371555555556067
-783.5195011159286	-0.12355777777777499
-783.9998575762921	-0.08413111111111195
-784.480237554341	-0.05764666666666421
-784.9606410517923	-0.05005777777777338
-785.4410680703809	-0.025375555555559308
-785.9215186118329	-0.07682444444444425
-786.40199267787	-0.12439111111110833
-786.8824902702311	-0.14072222222222383
-787.3630113906338	-0.046235555555556654
-787.8435560408127	-0.0734088888888962
-788.3241242224894	0.00031777777777784245
-788.8047159374032	-0.06934444444444833
-789.2853311872715	-0.1003666666666686
-789.7659699738286	-0.12747999999999593
-790.2466322988054	-0.040557777777778234
-790.7273181639276	-0.04293777777777804
-791.2080275709216	-0.06084000000000136
-791.688760521526	-0.030086666666668153
-792.1695170174628	0.025286666666668477
-792.6502970604668	-0.04618222222222054
-793.1311006522637	-0.022413333333331845
-793.6119277945843	-0.05114666666666583
-794.092778489163	-0.0864333333333343
-794.5736527377261	-0.014479999999999158
-795.0545505420038	-0.1096511111111128
-795.5354719037309	-0.02115333333333385
-796.0164168246334	-0.05205111111110859
-796.4973853064505	-0.17386666666667022
-796.9783773509082	-0.11085777777777467
-797.4593929597368	-0.14743777777778128
-797.9404321346666	-0.03947999999999916
-798.4214948774369	-0.20136222222222488
-798.9025811897736	-0.21977333333333565
-799.3836910734115	-0.16765333333334032
-799.8648245300809	-0.08688888888888566
-800.3459815615166	0.053624444444439076
-800.8271621694489	-0.05030666666666447
-801.3083663556126	-0.10544444444444606
-801.7895941217425	-0.12218888888889018
-802.2708454695688	-0.03726222222222229
-802.752120400822	-0.12302888888889155
-803.2334189172411	-0.07381555555555679
-803.714741020561	-0.20397333333333437
-804.1960867125118	-0.05082222222221996
-804.6774559948284	-0.13031555555555516
-805.1588488692455	-0.19892222222222092
-805.6402653374979	-0.1751844444444416
-806.1217054013158	-0.16732444444444103
-806.6031690624428	-0.2240355555555531
-807.0846563226091	-0.18604888888889237
-807.5661671835452	-0.06981111111111304
-808.0477016469945	-0.03717555555556222
-808.529259714683	-0.07956888888889
-809.0108413883585	-0.15743333333333592
-809.492446669747	-0.13797333333333275
-809.9740755605875	-0.058591111111107035
-810.4557280626192	-0.08651333333333443
-810.9374041775724	-0.10012888888889089
-811.4191039071861	-0.09805555555555556
-811.9008272532038	-0.0017133333333266719
-812.3825742173516	-0.0635200000000057
-812.8643448013684	-0.1247333333333356
-813.3461390069976	-0.058820000000002134
-813.8279568359742	-0.1402933333333365
-814.3097982900326	-0.14032666666666854
-814.791663370912	-0.05196666666667119
-815.2735520803471	-0.11656666666667055
-815.7554644200815	-0.07557555555555963
-816.2374003918538	-0.0457533333333332
-816.7193599973991	-0.28975777777777695
-817.2013432384564	-0.1954133333333286
-817.6833501167603	-0.09170222222222138
-818.1653806340586	-0.09316444444445046
-818.6474347920818	0.005544444444442181
-819.1295125925774	-0.09638888888888889
-819.6116140372759	-0.04323333333333721
