768.5491804111048	0.3511111111111111
768.1418053541423	0.6055555555555555
767.7344119301292	0.47400000000000647
767.3270001378255	0.20799999999999677
766.919569975984	0.3437777777777713
766.512121443371	0.5726666666666602
766.104654538731	0.30577777777777454
765.6971692608303	0.5882222222222158
765.2896656084283	0.6164444444444477
764.8821435802741	0.39644444444444765
764.4746031751316	0.4033333333333333
764.0670443917518	0.4255555555555556
763.6594672288965	0.4622222222222222
763.2518716853233	0.1262222222222287
762.8442577597809	0.25688888888888567
762.4366254510356	0.3711111111111111
762.0289747578362	0.3162222222222287
761.6213056789402	0.4073333333333398
761.2136182131094	0.5384444444444509
760.8059123590926	0.5053333333333365
760.3981881156518	0.18066666666667314
759.9904454815378	0.1864444444444477
759.5826844555062	0.13111111111111112
759.1749050363206	0.3491111111111079
758.7671072227259	0.2637777777777713
758.359291013486	0.43177777777778426
757.9514564073496	0.5377777777777778
757.5436034030721	0.5511111111111111
757.1357319994177	0.4424444444444412
756.7278421951283	0.35555555555555557
756.3199339889704	0.3184444444444509
755.9120073796885	0.40533333333333654
755.5040623660421	0.1526666666666602
755.096098946789	0.32755555555555876
754.6881171206754	0.4462222222222287
754.2801168864657	0.3708888888888921
753.8720982429043	0.5677777777777778
753.4640611887509	0.6111111111111112
753.0560057227563	0.30666666666666664
752.6479318436759	0.5673333333333398
752.2398395502653	0.3953333333333366
751.831728841273	0.5055555555555555
751.4235997154589	0.1986666666666699
751.0154521715696	0.5157777777777746
750.6072862083624	0.20777777777777778
750.1991018245931	0.26799999999999674
749.7908990190057	0.21666666666666667
749.3826777903645	0.37422222222222545
748.9744381374117	0.5853333333333366
748.5661800589027	0.2911111111111111
748.1579035535971	0.6033333333333334
747.7496086202395	0.4137777777777713
747.3412952575874	0.2224444444444412
746.9329634643873	0.13200000000000323
746.5246132393926	0.3317777777777842
746.1162445813628	0.5008888888888922
745.7078574890403	0.49822222222221574
745.2994519611847	0.48933333333332685
744.8910279965384	0.23711111111110464
744.4825855938589	0.2148888888888824
744.0741247518993	0.2737777777777713
743.6656454694064	0.34644444444444766
743.2571477451354	0.24533333333333657
742.848631577833	0.42777777777777776
742.4400969662523	0.3562222222222287
742.0315439091466	0.20555555555555555
741.6229724052625	0.43822222222221574
741.2143824533555	0.3024444444444412
740.8057740521698	0.23177777777778424
740.3971472004587	0.24377777777777132
739.9885018969776	0.2324444444444412
739.5798381404666	0.04066666666667314
739.1711559296853	0.17422222222222544
738.7624552633761	0.3531111111111143
738.3537361402944	0.15333333333333332
737.9449985591888	0.3575555555555588
737.5362425188041	0.24377777777777132
737.1274680178976	0.31466666666666343
736.7186750552117	0.14444444444444443
736.3098636294974	0.47288888888889535
735.90103373951	0.42799999999999677
735.4921853839897	0.27200000000000324
735.0833185616918	0.44911111111110785
734.6744332713587	0.4371111111111046
734.2655295117456	0.44822222222221575
733.8566072815993	0.2635555555555523
733.4476665796664	0.42599999999999355
733.0387074046979	0.45111111111111113
732.6297297554382	0.11555555555555555
732.2207336306385	0.27466666666666345
731.8117190290474	0.36088888888889215
731.4026859494096	0.19777777777777777
730.9936343904782	0.26755555555555877
730.5845643509933	0.37444444444444447
730.175475829706	0.09599999999999353
729.7663688253693	0.27288888888889534
729.3572433367214	0.2984444444444509
728.9480993625175	-0.019333333333326867
728.5389369014977	0.3506666666666731
728.129755952411	0.35444444444444445
727.7205565140105	0.3179999999999968
727.3113385850342	0.41688888888888564
726.9021021642374	0.3442222222222255
726.4928472503558	0.38066666666667315
726.0835738421472	0.22844444444445092
725.6742819383494	0.2975555555555588
725.2649715377112	0.230222222222219
724.8556426389815	0.20088888888889211
724.4462952409026	0.4191111111111079
724.0369293422256	0.36711111111110467
723.6275449416883	0.4891111111111079
723.2181420380396	0.4564444444444477
722.8087206300328	0.3879999999999968
722.3992807163992	0.4106666666666731
721.9898222958986	0.25666666666666665
721.5803453672625	0.3226666666666602
721.1708499292439	0.37222222222222223
720.7613359805896	0.6079999999999968
720.3518035200398	0.3153333333333366
719.9422525463409	0.30666666666666664
719.5326830582355	0.3973333333333398
719.1230950544702	0.16466666666666344
718.7134885337939	0.5326666666666602
718.3038634949401	0.16577777777777455
717.8942199366641	0.5026666666666602
717.4845578576997	0.20644444444444768
717.0748772567979	0.26555555555555554
716.6651781327031	0.15022222222221898
716.2554604841532	0.060666666666673134
715.8457243098995	0.36666666666666664
715.4359696086776	0.14799999999999677
715.0261963792342	0.260444444444438
714.616404620316	0.28400000000000647
714.2065943306587	0.390444444444438
713.7967655090134	0.008444444444450912
713.386918154116	0.4266666666666667
712.977052264713	0.5875555555555588
712.5671678395512	0.4537777777777713
712.157264877362	0.40355555555555234
711.7473433769006	0.6311111111111111
711.3374033368989	0.45111111111111113
710.9274447561031	0.18711111111110465
710.5174676332601	0.6253333333333365
710.1074719671014	0.08177777777778425
709.6974577563823	0.3137777777777713
709.2874249998299	0.28466666666666346
708.8773736961951	0.42088888888889214
708.4673038442228	0.22577777777777455
708.057215442644	0.3342222222222255
707.6471084902078	0.3491111111111079
707.2369829856499	0.25
706.8268389277149	0.4486666666666699
706.4166763151472	0.22111111111111112
706.0064951466805	0.0975555555555588
705.5962954210615	0.2624444444444412
705.1860771370237	0.14644444444444768
704.775840293314	0.23688888888888565
704.3655848886724	0.025555555555555557
703.9553109218369	0.35288888888889536
703.5450183915499	0.46555555555555556
703.134707296547	0.4384444444444509
702.7243776355753	0.4075555555555588
702.3140294073658	0.36599999999999355
701.9036626106632	0.43333333333333335
701.4932772442121	0.33911111111110787
701.0828733067416	0.45422222222222547
700.6724507970007	0.3551111111111176
700.2620097137208	0.4175555555555588
699.8515500556443	0.1115555555555491
699.4410718215134	0.2684444444444509
699.0305750100598	0.2577777777777778
698.6200596200321	0.5553333333333366
698.2095256501597	0.4048888888888824
697.7989730991849	0.279555555555562
697.3884019658501	0.1848888888888824
696.9778122488846	0.6955555555555556
696.5672039470371	0.27644444444444766
696.1565770590371	0.28888888888888886
695.7459315836269	0.27288888888889534
695.3352675195465	0.3815555555555491
694.9245848655254	0.599777777777781
694.5138836203122	0.14555555555555555
694.1031637826343	0.29888888888888887
693.692425351234	0.12777777777777777
693.2816683248534	0.2237777777777713
692.8708927022199	0.40311111111111436
692.46009848208	0.15377777777777132
692.0492856631608	0.25311111111111434
691.6384542442048	0.29599999999999355
691.2276042239542	0.42200000000000326
690.8167356011342	0.39111111111111113
690.4058483744911	0.22533333333333658
689.9949425427545	0.2615555555555491
689.5840181046623	0.27288888888889534
689.1730750589568	0.34555555555555556
688.7621134043652	0.3091111111111079
688.3511331396297	0.5288888888888889
687.940134263482	0.23466666666666344
687.5291167746599	0.21511111111111758
687.1180806719015	0.33466666666666345
686.707025953936	0.2937777777777713
686.2959526195058	0.4062222222222287
685.8848606673403	0.4371111111111046
685.4737500961751	0.4157777777777745
685.0626209047527	0.46200000000000324
684.651473091798	0.3171111111111046
684.2403066560556	0.22822222222221575
683.8291215962504	0.26288888888889533
683.4179179111203	0.3786666666666699
683.0066955994079	0.2448888888888824
682.5954546598334	0.4453333333333366
682.1841950911439	0.35044444444443795
681.7729168920664	0.16711111111110463
681.3616200613344	0.35177777777778424
680.9503045976883	0.3120000000000032
680.5389704998529	0.17400000000000646
680.1276177665706	0.3315555555555491
679.7162463965662	0.3675555555555588
679.3048563885802	0.6835555555555524
678.893447741346	0.27599999999999353
678.4820204535908	0.4673333333333398
678.0705745240549	0.30777777777777776
677.659109951463	0.3040000000000065
677.2476267345577	0.29599999999999355
676.8361248720615	0.1886666666666699
676.4246043627128	0.3615555555555491
676.013065205247	0.26555555555555554
675.6015073983895	0.249777777777781
675.18993094088	0.46711111111110465
674.7783358314439	0.4057777777777745
674.3667220688145	0.49444444444444446
673.95508965173	0.5253333333333365
673.5434385789132	0.39444444444444443
673.1317688491064	0.24599999999999353
672.7200804610279	0.2891111111111079
672.3083734134182	0.5377777777777778
671.8966477050107	0.3442222222222255
671.4849033345282	0.320444444444438
671.0731403007111	0.6715555555555491
670.6613586022797	0.35155555555554907
670.2495582379745	0.34599999999999353
669.8377392065245	0.4051111111111176
669.4259015066549	0.33644444444444765
669.0140451371036	0.399777777777781
668.6021700965935	0.6079999999999968
668.1902763838601	0.43666666666666665
667.7783639976353	0.5108888888888922
667.3664329366418	0.7988888888888889
666.9544831996196	0.3546666666666634
666.5425147852873	0.3844444444444444
666.1305276923807	0.4526666666666602
665.7185219196356	0.6651111111111175
665.3064974657683	0.3740000000000065
664.8944543295212	0.5208888888888922
664.4823925096126	0.6651111111111175
664.0703120047763	0.4766666666666667
663.6582128137437	0.36933333333332685
663.24609493524	0.5757777777777745
662.8339583679985	0.5908888888888921
662.4218031107423	0.5151111111111176
662.0096291622027	0.5788888888888889
661.5974365211113	0.5104444444444379
661.1852251861908	0.1264444444444477
660.7729951561749	0.439555555555562
660.3607464297864	0.36177777777778425
659.9484790057548	0.4435555555555523
659.5361928828136	0.49
659.1238880596833	0.33822222222221576
658.7115645350955	0.6055555555555555
658.2992223077753	0.6255555555555555
657.8868613764497	0.5477777777777778
657.4744817398523	0.5111111111111111
657.062083396704	0.3864444444444477
656.649666345736	0.7673333333333398
656.2372305856691	0.6046666666666635
655.8247761152347	0.1424444444444412
655.4123029331622	0.3175555555555588
654.9998110381722	0.5075555555555588
654.5873004289984	0.32288888888889533
654.174771104357	0.4946666666666634
653.7622230629861	0.5228888888888954
653.3496563036018	0.780444444444438
652.9370708249337	0.4846666666666634
652.5244666257131	0.439777777777781
652.1118437046564	0.7062222222222286
651.6992020604994	0.5917777777777843
651.2865416919583	0.440444444444438
650.8738625977625	0.38755555555555876
650.4611647766413	0.30311111111111433
650.048448227311	0.44511111111111756
649.6357129485075	0.5991111111111079
649.222958938947	0.5379999999999968
648.8101861973566	0.6504444444444379
648.3973947224658	0.7493333333333269
647.984584512993	0.39822222222221576
647.5717555676696	0.47
647.158907885212	0.5937777777777713
646.7460414643473	0.6493333333333269
646.3331563038048	0.9171111111111047
645.9202524023008	0.5220000000000032
645.5073297585668	0.7886666666666698
645.0943883713213	0.6606666666666732
644.6814282392871	0.4408888888888921
644.2684493611957	0.590222222222219
643.8554517357634	0.7706666666666732
643.4424353617173	0.5817777777777843
643.0294002377759	0.7264444444444477
642.6163463626642	0.6773333333333398
642.2032737351115	0.5451111111111175
641.7901823538318	0.6126666666666603
641.3770722175568	0.7815555555555491
640.9639433250006	0.31466666666666343
640.5507956748881	0.39311111111111435
640.1376292659486	0.5428888888888953
639.7244440968942	0.668444444444451
639.3112401664562	0.5382222222222157
638.8980174733489	0.7051111111111176
638.4847760162971	1.0064444444444476
638.0715157940282	0.850222222222219
637.6582368052561	0.7046666666666634
637.244939048708	0.7322222222222222
636.8316225231004	0.7333333333333333
636.418287227158	0.710222222222219
636.0049331596038	0.6340000000000064
635.5915603191539	0.35577777777777453
635.1781687045379	0.38022222222221896
634.7647583144653	0.6231111111111144
634.3513291476636	0.6584444444444509
633.9378812028574	0.5157777777777746
633.5244144787567	0.6917777777777843
633.1109289740931	0.7813333333333301
632.6974246875783	0.42244444444444124
632.2839016179374	0.5520000000000033
631.8703597638911	0.7315555555555491
631.4567991241556	0.7584444444444509
631.0432196974559	0.7988888888888889
630.629621482504	0.7524444444444413
630.216004478025	0.7184444444444509
629.8023686827437	0.5553333333333366
629.3887140953677	0.6179999999999968
628.9750407146265	0.42799999999999677
628.5613485392319	0.6244444444444445
628.147637567909	0.7266666666666667
627.7339077993718	0.45466666666666344
627.3201592323411	0.6408888888888922
626.9063918655396	0.68
626.4926056976793	0.6742222222222255
626.0788007274851	0.5846666666666634
625.6649769536692	0.630222222222219
625.251134374952	0.749555555555562
624.8372729900542	0.49422222222222545
624.4233927976921	0.5424444444444412
624.0094937965844	0.8184444444444509
623.5955759854471	0.34444444444444444
623.1816393629965	0.5177777777777778
622.7676839279578	0.8255555555555556
622.3537096790408	0.6948888888888824
621.939716614968	0.4826666666666602
621.5257047344518	0.680222222222219
621.1116740362103	0.6157777777777745
620.6976245189643	0.7333333333333333
620.2835561814256	0.5666666666666667
619.8694690223195	0.690222222222219
619.4553630403514	0.6584444444444509
619.0412382342416	0.6111111111111112
618.6270946027155	0.5462222222222287
618.2129321444761	0.8237777777777713
617.7987508582486	0.4624444444444412
617.3845507427448	0.6226666666666602
616.9703317966788	0.7424444444444412
616.5560940187758	0.3313333333333301
616.1418374077409	0.29777777777777775
615.7275619622974	0.6646666666666634
615.3132676811547	0.7377777777777778
614.8989545630293	0.7042222222222254
614.4846226066439	0.5262222222222287
614.0702718107042	0.829555555555562
613.6559021739305	0.6422222222222222
613.2415136950349	0.42444444444444446
612.8271063727316	0.5966666666666667
612.4126802057413	0.6964444444444476
611.9982351927714	0.46288888888889534
611.5837713325427	0.6022222222222222
611.1692886237629	0.5391111111111079
610.7547870651481	0.8033333333333333
610.3402666554169	0.7440000000000064
609.9257273932792	0.6433333333333333
609.5111692774511	0.5524444444444412
609.0965923066425	0.5413333333333301
608.6819964795696	0.6771111111111047
608.267381794949	0.6364444444444477
607.852748251488	0.6944444444444444
607.4380958479052	0.8366666666666667
607.0234245829083	0.6593333333333269
606.6087344552135	0.69
606.1940254635371	0.3811111111111111
605.7792976065847	0.7933333333333333
605.3645508830767	0.8840000000000064
604.9497852917189	0.6977777777777778
604.5350008312295	0.9155555555555556
604.1201975003139	0.6133333333333333
603.7053752976888	0.6877777777777778
603.2905342220679	0.4748888888888824
602.875674272159	0.4926666666666602
602.4607954466808	0.749777777777781
602.045897744334	0.6775555555555588
601.6309811638374	0.6559999999999935
601.2160457039072	0.7455555555555555
600.8010913632422	0.5753333333333366
600.3861181405678	0.5428888888888953
599.9711260345824	0.8626666666666603
599.5561150440028	0.6075555555555587
599.1410851675449	0.8720000000000032
598.7260364039103	0.5279999999999968
598.310968751817	0.8159999999999935
597.8958822099685	0.6937777777777713
597.4807767770811	0.4251111111111176
597.0656524518646	0.769777777777781
596.6505092330244	0.5779999999999967
596.2353471192791	0.7335555555555523
595.8201661093298	0.6862222222222287
595.4049662018905	0.5931111111111144
594.9897473956734	0.4586666666666699
594.5745096893836	0.5046666666666635
594.1592530817335	0.4891111111111079
593.7439775714304	0.5206666666666732
593.328683157182	0.6184444444444509
592.9133698377069	0.4766666666666667
592.4980376117019	0.5488888888888889
592.0826864778852	0.8484444444444509
591.6673164349583	0.449777777777781
591.2519274816328	0.5184444444444509
590.8365196166231	0.5053333333333365
590.4210928386259	0.6044444444444445
590.0056471463619	0.5402222222222189
589.5901825385299	0.581555555555549
589.1746990138421	0.6866666666666666
588.7591965710102	0.600222222222219
588.3436752087334	0.6759999999999935
587.9281349257278	0.6862222222222287
587.5125757206926	0.559555555555562
587.0969975923396	0.39844444444445093
586.6814005393828	0.4922222222222222
586.2657845605171	0.49822222222221574
585.8501496544609	0.7457777777777745
585.4344958199108	0.47422222222222543
585.0188230555813	0.3675555555555588
584.6031313601796	0.4022222222222222
584.1874207324072	0.28533333333333655
583.7716911709758	0.46799999999999675
583.3559426745845	0.4693333333333269
582.9401752419452	0.3408888888888921
582.5243888717699	0.24155555555554908
582.108583562751	0.3511111111111111
581.6927593136072	0.5222222222222223
581.276916123035	0.4313333333333301
580.8610539897443	0.41444444444444445
580.4451729124428	0.5
580.0292728898315	0.39466666666666345
579.6133539206203	0.5677777777777778
579.1974160035103	0.24533333333333657
578.7814591372113	0.42622222222222866
578.3654833204223	0.4284444444444509
577.9494885518508	0.46688888888888563
577.5334748302067	0.4608888888888921
577.1174421541846	0.3951111111111176
576.7013905225008	0.49688888888888566
576.28531993385	0.42822222222221573
575.8692303869396	0.5359999999999935
575.4531218804776	0.5357777777777746
575.0369944131626	0.39288888888889534
574.6208479837046	0.2391111111111079
574.2046825907981	0.40599999999999353
573.7884982331552	0.5953333333333366
573.3722949094791	0.25933333333332687
572.9560726184689	0.4
572.539831358832	0.349777777777781
572.1235711292675	0.460222222222219
571.7072919284808	0.6373333333333397
571.2909937551797	0.7644444444444445
570.8746766080585	0.47444444444444445
570.4583404858273	0.5488888888888889
570.0419853871806	0.5762222222222287
569.6256113108282	0.5482222222222157
569.2092182554734	0.4462222222222287
568.7928062198108	0.5242222222222255
568.3763752025502	0.45444444444444443
567.9599252023885	0.2544444444444444
567.543456218031	0.5942222222222254
567.126968248179	0.44377777777777133
566.7104612915313	0.561555555555549
566.2939353467976	0.5684444444444509
565.8773904126664	0.38422222222222546
565.4608264878493	0.369555555555562
565.0442435710477	0.5628888888888953
564.6276416609538	0.42822222222221573
564.2110207562797	0.22044444444443798
563.7943808557179	0.6284444444444509
563.3777219579716	0.37466666666666343
562.9610440617463	0.4275555555555588
562.5443471657366	0.6484444444444509
562.1276312686458	0.329777777777781
561.7108963691708	0.3737777777777713
561.2941424660146	0.47333333333333333
560.8773695578808	0.5193333333333269
560.4605776434596	0.30088888888889215
560.0437667214629	0.14577777777777454
559.6269367905788	0.3724444444444412
559.210087849515	0.5308888888888921
558.7932198969705	0.49088888888889215
558.3763329316378	0.48488888888888243
557.9594269522264	0.39311111111111435
557.5425019574247	0.44466666666666343
557.125557945938	0.42288888888889536
556.7085949164676	0.4371111111111046
556.2916128677036	0.5679999999999967
555.8746117983559	0.590222222222219
555.4575917071105	0.4973333333333398
555.0405525926749	0.49822222222221574
554.6234944537481	0.2717777777777842
554.2064172890205	0.42977777777778103
553.7893210971995	0.699555555555562
553.3722058769733	0.31577777777777455
552.9550716270476	0.4413333333333301
552.5379183461146	0.4975555555555588
552.1207460328753	0.6473333333333398
551.7035546860291	0.7235555555555523
551.2863443042659	0.659555555555562
550.8691148862935	0.6464444444444477
550.4518664307977	0.49822222222221574
550.034598936482	0.39844444444445093
549.6173124020431	0.3784444444444509
549.2000068261756	0.5626666666666602
548.7826822075806	0.5728888888888953
548.3653385449485	0.48688888888888565
547.947975836976	0.5544444444444444
547.5305940823685	0.5040000000000064
547.1131932798098	0.3959999999999935
546.6957734280055	0.5284444444444509
546.2783345256457	0.6575555555555588
545.8608765714274	0.549777777777781
545.4433995640516	0.51
545.0259035022042	0.6982222222222157
544.6083883845907	0.6517777777777842
544.1908542098972	0.28555555555555556
543.7733009768225	0.49288888888889537
543.3557286840677	0.48711111111110467
542.9381373303188	0.6137777777777713
542.5205269142768	0.4424444444444412
542.1028974346301	0.7513333333333301
541.6852488900796	0.7442222222222254
541.2675812793178	0.6864444444444476
540.8498946010372	0.7833333333333333
540.4321888539369	0.8244444444444444
540.0144640367046	0.8915555555555491
539.5967201480374	0.811555555555549
539.178957186632	0.7288888888888889
538.7611751511765	1.0033333333333334
538.34337404037	0.939777777777781
537.9255538529005	0.8213333333333301
537.5077145874648	0.610444444444438
537.0898562427574	0.6862222222222287
536.6719788174688	0.9035555555555523
536.2540823102956	0.9633333333333334
535.8361667199239	0.8557777777777745
535.4182320450526	0.8477777777777777
535.0002782843742	1.020666666666673
534.5823054365788	1.020222222222219
534.1643135003612	0.750222222222219
533.7463024744095	1.0071111111111046
533.3282723574183	0.8242222222222254
532.9102231480844	1.1853333333333365
532.4921548450936	1.0068888888888856
532.0740674471408	0.9451111111111176
531.6559609529138	1.009777777777781
531.2378353611075	0.810222222222219
530.8196906704163	1.1953333333333365
530.4015268795264	1.12
529.9833439871321	0.9173333333333398
529.5651419919218	1.1968888888888856
529.1469208925878	1.2964444444444476
528.7286806878247	1.2040000000000064
528.3104213763164	1.2026666666666601
527.8921429567617	1.2717777777777843
527.4738454278403	1.0991111111111078
527.0555287882552	1.4371111111111046
526.637193036686	1.5133333333333334
526.2188381718272	1.4084444444444508
525.8004641923736	1.6440000000000066
525.3820710970047	1.4146666666666634
524.9636588844212	1.5611111111111111
524.5452275533052	1.3568888888888857
524.1267771023488	1.7617777777777843
523.7083075302446	1.36
523.2898188356743	1.6808888888888922
522.8713110173368	1.7340000000000064
522.4527840739113	1.639555555555562
522.0342380040928	1.8544444444444443
521.6156728065735	1.999333333333327
521.1970884800329	1.7526666666666602
520.7784850231678	1.970222222222219
520.3598624346599	2.04133333333333
519.9412207132015	2.278888888888889
519.522559857483	2.2555555555555555
519.1038798661881	2.317999999999997
518.6851807380093	2.431555555555549
518.2664624716282	2.462222222222222
517.8477250657371	2.348888888888889
517.4289685190266	2.578888888888889
517.0101928301759	2.9713333333333303
516.5913979978819	3.2288888888888887
516.1725840208239	3.3255555555555554
515.7537508976902	3.458222222222216
515.3348986271753	3.5551111111111178
514.9160272079566	3.697999999999997
514.4971366387285	3.6742222222222254
514.0782269181728	4.095111111111118
513.6592980449755	4.413777777777772
513.240350017831	4.565999999999994
512.8213828354145	4.866444444444448
512.4023964964229	5.380222222222219
511.9833909995311	5.591111111111111
511.56436634343385	6.179777777777781
511.1453225268149	6.380222222222219
510.72625954835803	7.3473333333333395
510.30717740675357	7.690444444444438
509.88807610067875	8.424000000000007
509.468955628826	8.854222222222225
509.04981598988127	9.696888888888886
508.6306571825219	10.153333333333334
508.2114792054424	10.826888888888886
507.79228205732016	11.492888888888896
507.3730657368433	12.457111111111105
506.9538302426998	12.95022222222222
506.534575573567	13.79022222222222
506.11530172813525	14.344666666666663
505.69600870508606	15.458222222222215
505.2766965031011	15.955999999999994
504.8573651208728	16.63133333333333
504.43801455707415	16.76222222222222
504.01864481040184	17.224222222222224
503.59925587952677	17.720666666666673
503.17984776314125	17.74888888888889
502.7604204599226	17.65044444444444
502.34097396855685	17.33044444444444
501.921508287732	17.12266666666666
501.50202341612106	16.62133333333333
501.0825193524186	16.50977777777778
500.6629960952976	15.87111111111111
500.243453643444	15.219333333333326
499.8238919955459	14.730222222222219
499.40431115027627	14.195555555555556
498.98471110632755	13.205111111111117
498.5650918623726	12.84244444444444
498.14545341709743	12.076666666666666
497.72579576918804	11.652888888888896
497.30611891731945	10.86244444444444
496.8864228601798	10.477777777777778
496.4667075964442	9.583555555555552
496.0469731247986	8.91155555555555
495.6272194439246	8.313111111111114
495.20744655250166	8.036888888888885
494.78765444921356	7.486222222222229
494.3678431327354	6.886222222222229
493.9480126017531	6.707999999999997
493.5281628549505	6.497999999999997
493.1082938910004	6.0079999999999965
492.6884057085911	5.595333333333336
492.26849830639543	5.144000000000006
491.84857168309713	5.167999999999997
491.4286258373801	4.845111111111118
491.00866076791937	4.671555555555549
490.5886764733987	4.274888888888882
490.16867295249324	4.156222222222229
489.74865020388455	4.140444444444438
489.32860822625867	4.0191111111111075
488.9085470182841	3.723777777777771
488.488466578649	3.566222222222229
488.0683669060263	3.431111111111111
487.64824799909763	3.3371111111111045
487.2281098565467	3.2253333333333365
486.8079524770444	2.857555555555559
486.3877758592766	3.1328888888888953
485.9675800019162	2.9837777777777714
485.5473649036427	2.850222222222219
485.1271305631399	2.62133333333333
484.70687697907846	2.6933333333333334
484.28660415014224	2.4059999999999935
483.86631207500636	2.461777777777784
483.4460007523481	2.0388888888888888
483.025670180849	2.392000000000003
482.605320359182	2.259555555555562
482.1849512860309	1.9528888888888953
481.76456296006654	2.0648888888888823
481.3441553799683	2.188222222222216
480.92372854441777	1.970888888888892
480.5032824520836	1.8508888888888921
480.0828171016517	1.8531111111111143
479.66233249179066	1.9628888888888953
479.24182862118215	1.8193333333333268
478.8213054885055	1.7266666666666666
478.40076309242943	1.9368888888888856
477.9802014316377	1.8042222222222255
477.55962050479883	1.8826666666666603
477.13902031059666	1.8242222222222255
476.7184008477019	1.9057777777777745
476.29776211478975	1.6224444444444412
475.87710411054394	1.4955555555555555
475.4564268336309	1.8635555555555523
475.03573028273223	1.5542222222222255
474.6150144565166	1.7555555555555555
474.1942793536655	1.509333333333327
473.7735249728541	1.4646666666666635
473.3527513127531	1.4273333333333398
472.9319583720421	1.5977777777777777
472.51114614938956	1.34
472.090314643475	1.4735555555555524
471.66946385297564	1.450222222222219
471.2485937765579	1.468888888888889
470.8277044129035	1.4844444444444445
470.4067957606809	1.5182222222222157
469.9858678185653	1.31733333333334
469.5649205852361	1.3168888888888857
469.14395405935755	1.301111111111111
468.7229682396156	1.5033333333333334
468.30196312467024	1.3973333333333398
467.880938713203	1.5873333333333397
467.4598950038891	1.26
467.0388319953948	1.249333333333327
466.6177496863997	1.0537777777777713
466.19664807557007	1.250888888888892
465.77552716158334	1.2268888888888856
465.35438694311455	1.0413333333333301
464.933227418828	1.3328888888888955
464.5120485874074	1.1188888888888888
464.09085044751265	1.0340000000000065
463.6696329978233	0.9973333333333398
463.24839623701223	0.9322222222222222
462.8271401637481	1.2973333333333399
462.4058647767059	1.3024444444444412
461.98457007455215	1.1728888888888953
461.5632560559619	1.1859999999999935
461.14192271961036	1.3231111111111142
460.7205700641616	1.0253333333333365
460.2991980882931	0.8017777777777843
459.8778067906712	0.9206666666666732
459.45639616996664	0.8731111111111144
459.0349662248589	0.9428888888888953
458.6135169540057	1.1457777777777745
458.1920483560887	0.8622222222222222
457.77056042977216	0.8515555555555491
457.3490531737268	0.8426666666666602
456.9275265866278	0.6666666666666666
456.50598066713934	0.8653333333333366
456.0844154139366	0.909555555555562
455.6628308256816	0.9111111111111111
455.2412269010517	0.798444444444451
454.8196036387175	1.0715555555555492
454.39796103734136	0.8720000000000032
453.9762990956003	0.5806666666666731
453.55461781215655	0.8148888888888824
453.13291718568524	0.8828888888888954
452.71119721484837	0.7604444444444379
452.2894578983211	0.6833333333333333
451.867699234772	0.8166666666666667
451.4459212228653	0.8235555555555524
451.0241238612762	0.79
450.6023071486668	0.6146666666666635
450.1804710837056	0.8891111111111079
449.75861566506774	0.8355555555555556
449.33674089141317	0.7279999999999968
448.914846761417	0.9377777777777778
448.4929332737391	0.67
448.0710004270503	0.6359999999999936
447.6490482200257	0.6262222222222287
447.22707665132083	0.7175555555555588
446.8050857196109	0.4535555555555523
446.3830754235579	0.7120000000000032
445.9610457618326	0.9088888888888889
445.5389967331037	0.9255555555555556
445.11692833603104	0.6888888888888889
444.69484056929196	0.7424444444444412
444.2727334315398	0.730222222222219
443.8506069214497	0.7346666666666635
443.4284610376903	0.6411111111111111
443.0062957789193	0.9551111111111176
442.5841111438118	0.6815555555555491
442.1619071310256	1.0540000000000065
441.7396837392293	0.9128888888888954
441.31744096709366	0.7179999999999968
440.8951788132764	0.9146666666666634
440.4728972764505	0.7064444444444477
440.05059635527374	0.9279999999999967
439.6282760484168	0.7062222222222286
439.2059363545462	0.6504444444444379
438.7835772723197	0.9151111111111175
438.36119880041014	0.7691111111111079
437.9388009374753	0.6942222222222254
437.5163836821839	0.850222222222219
437.09394703320226	1.0168888888888856
436.67149098918816	0.6559999999999935
436.2490155488145	0.7820000000000032
435.82652071073693	0.7833333333333333
435.40400647362407	0.8062222222222287
434.9814728361423	0.9368888888888857
434.5589197969472	0.580222222222219
434.1363473547139	0.7293333333333268
433.71375550809364	0.8073333333333398
433.29114425575506	0.6417777777777842
432.8685135963667	0.7491111111111078
432.4458635285842	0.8659999999999936
432.02319405107613	0.7379999999999968
431.6005051625002	0.4586666666666699
431.1777968615208	0.8904444444444379
430.75506914680426	0.8993333333333269
430.3323220170084	0.8735555555555523
429.9095554707996	0.6582222222222157
429.4867695068356	0.9162222222222287
429.06396412378075	0.8040000000000065
428.6411393203014	0.9546666666666634
428.2182950950532	0.8035555555555524
427.7954314467025	0.9382222222222157
427.372548373905	0.9048888888888824
426.94964587532917	1.001111111111111
426.5267239496307	0.9631111111111144
426.10378259547383	0.9211111111111111
425.680821811525	0.9057777777777746
425.25784159643325	1.050222222222219
424.83484194887154	1.0155555555555555
424.411822867489	0.990444444444438
423.9887843509541	0.9942222222222254
423.56572639793126	1.0748888888888823
423.1426490070695	1.0733333333333333
422.71955217703953	0.9693333333333268
422.2964359064949	0.8535555555555523
421.8733001940954	1.0364444444444476
421.45014503850973	1.1837777777777714
421.0269704383869	1.1666666666666667
420.60377639239556	1.1577777777777778
420.18056289918695	1.0513333333333301
419.7573299574231	0.8755555555555555
419.3340775657706	1.01133333333333
418.91080572287837	1.0671111111111047
418.4875144274151	0.821555555555549
418.06420367802986	1.18133333333333
417.6408734733869	1.0353333333333365
417.21752381215043	1.0666666666666667
416.7941546929653	1.230222222222219
416.3707661145044	1.108444444444451
415.9473580754146	0.9946666666666635
415.5239305743603	1.01133333333333
415.1004836100013	1.1357777777777744
414.67701718098886	0.9868888888888857
414.2535312859894	1.3053333333333366
413.83002592364994	1.2644444444444445
413.40650109263686	1.07866666666667
412.98295679160566	1.009777777777781
412.55939301921205	1.181555555555549
412.1358097741159	0.6546666666666634
411.7122070549707	0.920444444444438
411.28858486043407	0.7484444444444509
410.8649431891682	0.8222222222222222
410.44128203982217	0.9426666666666602
410.0176014110602	1.0079999999999967
409.5939013015293	1.1033333333333333
409.1701817098936	0.869777777777781
408.74644263481093	0.9586666666666699
408.32268407492825	1.1044444444444443
407.8989060289119	0.989777777777781
407.47510849540885	0.879777777777781
407.05129147307906	1.0857777777777746
406.6274549605823	0.9413333333333301
406.2035989565657	0.7591111111111079
405.77972345969124	0.9146666666666634
405.3558284686102	1.048444444444451
404.9319139819781	0.9768888888888857
404.5079799984549	1.0024444444444411
404.0840265166876	1.1462222222222287
403.6600535353382	1.1246666666666634
403.2360610530558	1.1117777777777842
402.81204906849604	1.1411111111111112
402.38801758032093	1.1237777777777713
401.9639665871731	0.9620000000000032
401.5398960877147	0.8548888888888824
401.1158060805947	0.8644444444444445
400.6916965644731	0.6253333333333365
400.2675675379968	0.8946666666666634
399.8434189998214	0.8659999999999936
399.41925094860676	1.1568888888888857
398.9950633829977	1.1562222222222287
398.57085630165415	1.1924444444444413
398.14662970322297	1.0282222222222157
397.7223835863598	1.1864444444444477
397.2981179497224	1.0568888888888857
396.87383279195546	1.1471111111111048
396.4495281117211	1.0955555555555556
396.0252039076598	1.1040000000000065
395.6008601784314	0.9822222222222222
395.1764969226915	0.889555555555562
394.7521141390848	0.9615555555555491
394.3277118262714	1.1193333333333269
393.9032899828916	0.9622222222222222
393.4788486076074	1.0451111111111175
393.05438769906806	1.1217777777777842
392.62990725592255	1.24133333333333
392.20540727682646	0.9848888888888824
391.7808877604268	0.9324444444444412
391.3563487053747	1.1059999999999934
390.93179011032805	1.1788888888888889
390.5072119739293	0.7646666666666634
390.0826142948363	1.1093333333333268
389.65799707169157	1.0871111111111047
389.23336030315073	0.7528888888888954
388.80870398786715	0.9677777777777777
388.38402812448567	1.0126666666666602
387.95933271166183	0.9951111111111176
387.5346177480382	1.0446666666666635
387.1098832322682	1.108444444444451
386.68512916300745	0.8133333333333334
386.2603555388963	0.86
385.83556235859476	0.9684444444444509
385.410749620741	0.9546666666666634
384.9859173239885	1.189777777777781
384.5610654669928	0.769777777777781
384.13619404839216	1.140222222222219
383.7113030668465	0.9853333333333366
383.28639252099407	1.2146666666666635
382.86146240949046	1.0044444444444445
382.4365127309847	0.6666666666666666
382.0115434841195	1.0515555555555491
381.58655466755033	1.0075555555555589
381.16154627991983	1.0273333333333399
380.73651831987706	1.169777777777781
380.31147078607324	0.9653333333333366
379.886403677151	0.9322222222222222
379.46131699176595	0.9353333333333366
379.03621072855407	0.8962222222222287
378.61108488617106	0.8508888888888921
378.1859394632681	0.9768888888888857
377.76077445848125	0.7879999999999968
377.3355898704662	0.8715555555555491
376.91038569786326	0.87
376.4851619393237	1.0448888888888823
376.0599185934966	0.7917777777777842
375.6346556590224	0.8448888888888825
375.20937313455454	0.8759999999999936
374.78407101873125	1.1020000000000032
374.3587493102059	0.9968888888888856
373.93340800761894	0.7022222222222222
373.5080471096172	0.8944444444444445
373.0826666148543	1.029777777777781
372.657266521964	1.0582222222222157
372.23184682960186	0.8642222222222254
371.80640753640625	0.8522222222222222
371.3809486410261	1.219333333333327
370.9554701421085	1.0933333333333333
370.52997203829153	1.0173333333333399
370.1044543282287	1.030444444444438
369.6789170105582	0.9562222222222286
369.253360083927	0.9786666666666699
368.827783546982	0.930222222222219
368.40218739836365	0.9982222222222158
367.97657163672307	1.0722222222222222
367.5509362606943	0.9011111111111111
367.12528126892636	0.9433333333333334
366.69960666006835	0.880222222222219
366.27391243275423	0.9457777777777745
365.84819858563947	0.8893333333333269
365.42246511735374	0.9044444444444445
364.99671202655037	1.2131111111111144
364.5709393118742	0.96
364.1451469719591	1.1582222222222158
363.71933500545845	1.06733333333334
363.29350341100405	0.9768888888888857
362.86765218724713	1.0728888888888954
362.4417813328324	0.9362222222222287
362.01589084639386	1.1008888888888921
361.5899807265805	1.1002222222222189
361.1640509720306	0.9895555555555621
360.73810158138673	1.1191111111111078
360.312132553298	0.899777777777781
359.8861438863961	1.1459999999999935
359.46013557933014	1.1359999999999935
359.0341076307362	1.1331111111111143
358.60806003926115	1.2855555555555556
358.1819928035455	1.0577777777777777
357.7559059222252	1.271111111111111
357.32979939395165	1.1
356.90367321735425	0.9315555555555491
356.47752739108006	1.0224444444444412
356.0513619137737	1.0266666666666666
355.62517678406704	1.021555555555549
355.1989720006112	0.990444444444438
354.7727475620337	1.2226666666666601
354.34650346698356	1.1128888888888953
353.92023971410333	0.9162222222222287
353.49395630202486	1.0620000000000032
353.0676532293949	1.0973333333333397
352.6413304948475	1.0611111111111111
352.2149880970252	1.1655555555555555
351.7886260345727	1.0017777777777843
351.36224430611963	1.3068888888888857
350.93584291031505	0.9555555555555556
350.5094218457885	1.1124444444444412
350.0829811111891	1.220222222222219
349.6565207051442	1.4440000000000064
349.23004062630076	1.030888888888892
348.8035408733014	0.9113333333333301
348.37702144477345	1.1235555555555523
347.9504823393638	1.1437777777777713
347.5239235557065	1.2693333333333268
347.09734509243964	1.0653333333333366
346.6707469482059	1.1486666666666698
346.24412912163905	1.0655555555555556
345.81749161137964	1.1031111111111143
345.39083441605936	1.0835555555555523
344.9641575343208	1.2046666666666634
344.5374609648065	1.0857777777777746
344.1107447061417	1.3288888888888888
343.6840087569755	1.3479999999999968
343.2572531159353	1.1420000000000032
342.8304777816616	1.29
342.4036827527946	1.2646666666666635
341.97686802796625	1.42133333333333
341.55003360581685	0.9920000000000032
341.12317948497815	1.271555555555549
340.69630566408836	1.09
340.26941214179016	1.2628888888888954
339.8424989167087	1.3793333333333269
339.41556598748866	1.3326666666666602
338.9886133527598	1.229333333333327
338.5616410111602	1.238444444444451
338.13464896133036	1.3417777777777842
337.70763720189547	1.320222222222219
337.28060573150026	1.28133333333333
336.85355454877214	1.2262222222222288
336.4264836523516	1.24133333333333
335.9993930408746	1.3531111111111143
335.5722827129686	1.3082222222222157
335.14515266727835	1.209777777777781
334.7180029024291	1.3448888888888824
334.29083341705683	1.1953333333333365
333.8636442098042	1.3593333333333268
333.43643527929646	1.2535555555555524
333.0092066241718	1.5124444444444411
332.5819582430598	1.259777777777781
332.15469013459864	1.2659999999999936
331.7274022974224	1.20133333333333
331.3000947301604	1.4742222222222254
330.8727674314533	1.1406666666666732
330.44542039992405	1.24
330.01805363421084	1.1571111111111045
329.59066713295203	1.190222222222219
329.16326089477275	1.191555555555549
328.7358349183113	1.410444444444438
328.30838920219503	1.319777777777781
327.8809237450579	1.46866666666667
327.4534385455381	1.4882222222222157
327.0259336022609	1.6079999999999968
326.5984089138624	1.5546666666666635
326.1708644789699	1.3913333333333302
325.7433002962196	1.569777777777781
325.31571636424536	1.3888888888888888
324.88811268167234	1.518444444444451
324.4604892471388	1.3066666666666666
324.03284605927007	1.3528888888888952
323.60518311670216	1.3035555555555522
323.1775004180603	1.4171111111111045
322.74979796198056	1.2777777777777777
322.32207574709685	1.3291111111111078
321.89433377203005	1.3237777777777713
321.4665720354206	1.469777777777781
321.03879053589156	1.4968888888888856
320.61098927207684	1.2971111111111047
320.1831682426103	1.538888888888889
319.75532744611286	1.47866666666667
319.327466881225	1.3466666666666667
318.8995865465675	1.5628888888888954
318.4716864407743	1.5075555555555589
318.0437665624772	1.569777777777781
317.61582691030134	1.59866666666667
317.1878674828807	1.6575555555555588
316.7598882788383	1.5922222222222222
316.3318892968059	1.7059999999999935
315.90387053541735	1.630222222222219
315.47583199329364	1.3717777777777842
315.04777366907297	1.3215555555555492
314.6196955613719	1.7248888888888825
314.19159766882643	1.5853333333333366
313.7634799900684	1.6162222222222287
313.3353425237165	1.6655555555555555
312.9071852684068	1.5517777777777841
312.4790082227624	1.6535555555555523
312.0508113854106	1.8015555555555491
311.6225947549876	1.6257777777777744
311.1943583301098	1.7468888888888856
310.76610210941345	1.8393333333333268
310.33782609151933	1.710222222222219
309.9095302750549	1.7382222222222157
309.4812146586562	1.6842222222222254
309.0528792409398	1.8466666666666667
308.6245240205396	1.9246666666666634
308.1961489960765	1.9482222222222159
307.7677541661779	1.8791111111111078
307.3393395294777	1.7455555555555555
306.9109050845924	1.9622222222222223
306.48245083015604	1.9084444444444508
306.0539767647851	2.1440000000000063
305.6254828871156	1.8933333333333333
305.1969691957707	1.9337777777777714
304.76843568937124	1.740888888888892
304.33988236654903	1.8033333333333332
303.9113092259248	2.140666666666673
303.482716266124	1.8273333333333397
303.05410348577817	2.0779999999999967
302.625470883504	2.027555555555559
302.19681845793315	1.9917777777777843
301.7681462076844	1.9764444444444478
301.33945413138514	1.8346666666666633
300.91074222766275	2.0826666666666602
300.4820104951359	1.9420000000000033
300.05325893243645	1.9073333333333398
299.6244875381809	1.9917777777777843
299.1956963109988	2.1148888888888826
298.7668852495089	2.1540000000000066
298.3380543523364	2.0955555555555554
297.9092036181131	2.1571111111111048
297.480333045449	2.168888888888889
297.0514426329802	2.189555555555562
296.6225323793189	2.2408888888888923
296.19360228309466	2.1542222222222254
295.76465234293056	2.2146666666666635
295.3356825574475	2.22866666666667
294.9066929252707	2.0942222222222253
294.47768344501674	2.42133333333333
294.048654115313	2.428444444444451
293.6196049347869	2.457777777777778
293.19053590204845	2.5473333333333397
292.7614470157316	2.5224444444444414
292.33233827444855	2.379111111111108
291.90320967682675	2.288222222222216
291.47406122148914	2.331777777777784
291.04489290705243	2.411555555555549
290.61570473214385	2.5717777777777844
290.18649669537797	2.690222222222219
289.7572687953799	2.32133333333333
289.32802103077495	2.7071111111111046
288.8987534001752	2.3431111111111145
288.46946590221046	2.536888888888886
288.04015853549055	2.4420000000000033
287.61083129864517	2.5020000000000033
287.1814841902951	2.3946666666666636
286.7521172090527	2.1817777777777843
286.32273035354746	2.051555555555549
285.8933236223916	2.217999999999997
285.46389701420827	2.329111111111108
285.0344505276226	2.1568888888888855
284.6049841612446	2.13733333333334
284.1754979137018	2.0137777777777712
283.74599178360637	1.9457777777777745
283.31646576958354	1.9182222222222158
282.88691987025203	1.930444444444438
282.4573540842262	2.1257777777777744
282.0277684101335	2.0826666666666602
281.5981628465818	1.9968888888888856
281.1685373921963	1.979555555555562
280.738892045598	2.0086666666666697
280.3092268053968	2.000888888888892
279.87954167022235	1.9673333333333398
279.44983663868254	1.8488888888888888
279.0201117093983	2.0277777777777777
278.5903668809926	2.2311111111111113
278.16060215207557	1.869555555555562
277.73081752127234	1.7977777777777777
277.30101298719313	1.9617777777777843
276.8711885484587	1.9371111111111046
276.44134420368994	1.9382222222222159
276.011479951497	1.9566666666666668
275.58159579050505	2.0375555555555587
275.15169171932195	2.0735555555555525
274.72176773656867	2.069111111111108
274.291823840866	1.9722222222222223
273.86186003082196	1.9053333333333367
273.4318763050617	2.043111111111114
273.0018726621931	1.9877777777777779
272.57184910083924	1.9328888888888953
272.1418056196101	1.7364444444444478
271.71174221712675	1.7122222222222223
271.2816588920034	1.8502222222222189
270.85155564285236	1.7657777777777746
270.4214324682967	1.6737777777777714
269.9912893669421	1.7922222222222222
269.5611263374073	1.360444444444438
269.13094337831535	1.4531111111111144
268.7007404882677	1.529555555555562
268.27051766589165	1.2771111111111046
267.84027490979076	1.2451111111111175
267.410012218586	1.1777777777777778
266.97972959089384	1.2877777777777777
266.54942702532225	1.0522222222222222
266.1191045204921	1.0271111111111046
265.6887620750112	0.9317777777777843
265.2583996874962	0.8946666666666634
264.82801735656363	0.8226666666666602
264.3976150808213	0.6484444444444428
263.96719285889026	0.5917777777777762
263.5367506893761	0.5039999999999983
263.1062885708954	0.359777777777781
262.67580650206475	0.38711111111111274
262.2453044814899	0.389333333333335
261.8147825077938	0.38711111111111274
261.38424057957786	0.27399999999999836
260.9536786954609	0.28
260.52309685405726	0.11200000000000324
260.09249505397474	0.06733333333333172
259.66187329383007	0.020444444444446062
259.23123157223097	-0.012666666666668283
258.8005698877897	0.03911111111110788
258.36988823912293	-0.025555555555555557
257.9391866248384	0.015111111111109495
257.5084650435506	-0.13044444444444606
257.07772349386516	-0.17622222222222061
256.64696197439656	-0.13600000000000162
256.21618048376126	-0.270222222222219
255.78537902056289	-0.27799999999999675
255.35455758341797	-0.32222222222222224
254.92371617093224	-0.3135555555555523
254.49285478171788	-0.3339999999999984
254.0619734143915	-0.3164444444444477
253.63107206755444	-0.3422222222222222
253.20015073982543	-0.3839999999999984
252.76920942980587	-0.34044444444444605
252.33824813611014	-0.4568888888888857
251.90726685735262	-0.3913333333333301
251.4762655921347	-0.4017777777777762
251.0452443390751	-0.3948888888888905
250.61420309677302	-0.37311111111111434
250.18314186384507	-0.3551111111111095
249.75206063890124	-0.4348888888888905
249.32095942054727	-0.4117777777777762
248.8898382073954	-0.4391111111111079
248.45869699804697	-0.41533333333333655
248.0275357911229	-0.39111111111111113
247.59635458521805	-0.4773333333333317
247.16515337895117	-0.3760000000000016
246.73393217093013	-0.4411111111111111
246.30269095975632	-0.4951111111111095
245.87142974404628	-0.44
245.44014852239923	-0.42977777777778103
245.00884729342954	-0.4955555555555556
244.57752605574512	-0.5064444444444477
244.14618480794954	-0.44311111111111434
243.71482354865495	-0.47955555555555396
243.2834422764628	-0.4675555555555588
242.8520409899831	-0.48977777777778103
242.42061968782593	-0.5537777777777794
241.98917836859482	-0.51
241.55771703089982	-0.49
241.12623567334015	-0.5251111111111095
240.69473429453018	-0.49822222222222384
240.26321289307566	-0.48844444444444285
239.83167146757796	-0.4477777777777778
239.40011001665147	-0.4864444444444477
238.96852853889104	-0.4626666666666683
238.53692703291108	-0.46577777777777457
238.1053054973173	-0.4451111111111095
237.6736639307089	-0.3791111111111079
237.2420023317003	-0.5133333333333333
236.81032069888852	-0.4424444444444412
236.37861903088142	-0.42844444444444285
235.94689732628913	-0.47355555555555234
235.5151555837108	-0.5128888888888873
235.08339380175647	-0.5160000000000016
234.65161197902324	-0.5606666666666651
234.21981011412112	-0.4722222222222222
233.787988205658	-0.47933333333333494
233.35614625222874	-0.5379999999999968
232.92428425244776	-0.56
232.49240220490995	-0.5326666666666683
232.0605001082253	-0.5379999999999968
231.62857796099743	-0.4991111111111079
231.19663576182765	-0.4057777777777745
230.7646735093239	-0.5037777777777794
230.332691202081	-0.4464444444444477
229.90068883870907	-0.5042222222222255
229.46866641781375	-0.5364444444444477
229.03662393799	-0.5217777777777761
228.6045613978478	-0.5633333333333334
228.1724787959842	-0.5339999999999984
227.74037613100714	-0.5208888888888922
227.30825340151793	-0.5320000000000032
226.87611060611584	-0.45
226.4439477434087	-0.4971111111111127
226.01176481199144	-0.42044444444444606
225.5795618104719	-0.500444444444446
225.1473387374515	-0.4726666666666683
224.71509559152722	-0.5213333333333301
224.28283237130915	-0.49422222222222545
223.85054907539	-0.5120000000000032
223.41824570237551	-0.5491111111111079
222.98592225086918	-0.5062222222222206
222.55357871946592	-0.5128888888888873
222.12121510677358	-0.4886666666666699
221.68883141138704	-0.4822222222222222
221.2564276319099	-0.4448888888888905
220.82400376694562	-0.519777777777781
220.391559815087	-0.47444444444444445
219.95909577494402	-0.4915555555555572
219.52661164510724	-0.4762222222222206
219.09410742418672	-0.47422222222222543
218.66158311077297	-0.46799999999999675
218.2290387034696	-0.46911111111110787
217.79647420088008	-0.5262222222222206
217.36388960159718	-0.46799999999999675
216.93128490422876	-0.5184444444444428
216.49866010736534	-0.5253333333333365
216.0660152096083	-0.5735555555555524
215.6333502095634	-0.5737777777777794
215.20066510582114	-0.5035555555555523
214.76795989698724	-0.5266666666666666
214.33523458165223	-0.5553333333333366
213.90248915841968	-0.49933333333333496
213.46972362589096	-0.5360000000000016
213.03693798265877	-0.5055555555555555
212.6041322273245	-0.4786666666666699
212.171306358483	-0.619555555555554
211.73846037473567	-0.49288888888888727
211.30559427467955	-0.5724444444444412
210.87270805690952	-0.5391111111111079
210.4398017200291	-0.5022222222222222
210.00687526262885	-0.4866666666666667
209.57392868330584	-0.5862222222222206
209.1409619806657	-0.47844444444444284
208.7079751532969	-0.5288888888888889
208.27496819980294	-0.5062222222222206
207.84194111877216	-0.5495555555555539
207.408893908806	-0.5808888888888921
206.9758265685036	-0.550222222222219
206.54273909645556	-0.5866666666666667
206.10963149126542	-0.4711111111111111
