-194.58567678570358	-0.26374222222222465
-195.03763278408286	-0.332728888888887
-195.48961024557985	-0.24170311111111206
-195.9416091717168	-0.23719111111111285
-196.3936295640333	-0.24356800000000578
-196.84567142404936	-0.20429155555556158
-197.2977347533024	-0.2007413333333372
-197.74981955331899	-0.23280177777777783
-198.20192582562348	-0.30250666666666803
-198.6540535717533	-0.3755182222222275
-199.10620279323282	-0.2402951111111098
-199.5583734915973	-0.23212444444444877
-200.0105656683733	-0.23380088888888875
-200.46277932508949	-0.29044977777777403
-200.91501446328328	-0.28952533333333524
-201.36727108447695	-0.3590844444444439
-201.81954919021	-0.272480000000004
-202.27184878200688	-0.2762239999999939
-202.72416986139842	-0.2888746666666702
-203.17651242992207	-0.3140639999999985
-203.6288764891	-0.33342044444445085
-204.0812620404762	-0.3111004444444471
-204.53366908557277	-0.32542933333333673
-204.98609762592068	-0.28512355555555485
-205.4385476630595	-0.3285368888888883
-205.8910191985136	-0.33745244444444933
-206.34351223382254	-0.30170844444444
-206.79602677051503	-0.20013155555556295
-207.24856281011984	-0.2361013333333378
-207.7011203541787	-0.3231893333333331
-208.15369940421377	-0.213548444444443
-208.60629996176903	-0.20687288888888564
-209.058922028371	-0.2691839999999987
-209.51156560555057	-0.22910222222222526
-209.9642306948495	-0.282506666666668
-210.41691729779214	-0.3130613333333329
-210.86962541592243	-0.3445119999999992
-211.32235505076255	-0.33686044444444835
-211.77510620385863	-0.3180711111111143
-212.22787887673718	-0.25718399999999547
-212.68067307093128	-0.16907377777777988
-213.13348878798266	-0.19823999999999714
-213.5863260294157	-0.2637404444444514
-214.03918479677648	-0.34590755555555613
-214.4920650915959	-0.27872177777777124
-214.9449669154005	-0.22103288888888428
-215.39789026973855	-0.329777777777781
-215.85083515613658	-0.346202666666674
-216.30380157613635	-0.2082364444444425
-216.75678953126874	-0.25371911111111534
-217.20979902306678	-0.26467911111111686
-217.6628300530766	-0.316229333333338
-218.11588262282254	-0.3466328888888852
-218.5689567338507	-0.2490079999999984
-219.02205238769415	-0.2248604444444451
-219.47516958588594	-0.28238755555555045
-219.9283083299656	-0.17389333333333423
-220.38146862146843	-0.2630328888888875
-220.8346504619361	-0.22031822222222722
-221.28785385290172	-0.17955555555555394
-221.74107879590048	-0.1954222222222193
-222.19432529247416	-0.24523377777778174
-222.64759334415578	-0.36727644444444096
-223.1008829524893	-0.18670222222222138
-223.55419411900988	-0.2738879999999982
-224.00752684524844	-0.17992888888889058
-224.46088113275542	-0.22131733333333006
-224.91425698305733	-0.31913066666666257
-225.36765439770463	-0.25671111111111206
-225.82107337822816	-0.26236444444444107
-226.27451392616317	-0.2982239999999971
-226.72797604305794	-0.2524977777777773
-227.18145973044113	-0.23650311111111175
-227.6349649898632	-0.3238062222222167
-228.08849182285934	-0.2621582222222221
-228.54204023096048	-0.23239111111111319
-228.99561021571915	-0.3077048888888951
-229.44920177866416	-0.29769600000000435
-229.90281492134366	-0.27577777777777457
-230.35644964529726	-0.3643164444444442
-230.81010595205586	-0.3645031111111085
-231.26378384316985	-0.37998755555555463
-231.71748332017228	-0.27899199999999835
-232.1712043846136	-0.3477013333333323
-232.62494703802685	-0.3340177777777798
-233.0787112819494	-0.3547448888888903
-233.5324971179339	-0.2830151111111061
-233.986304547509	-0.3219306666666671
-234.44013357222732	-0.26974577777778097
-234.89398419362408	-0.31333155555556
-235.34785641323884	-0.2788515555555609
-235.80175023262203	-0.29584888888889205
-236.2556656533045	-0.22831466666666933
-236.7096026768367	-0.22589511111111077
-237.16356130476035	-0.28128888888889275
-237.61754153861068	-0.2813777777777755
-238.0715433799403	-0.27342044444445085
-238.52556683028004	-0.24865244444444318
-238.97961189118686	-0.2921902222222222
-239.43367856419383	-0.27530844444443775
-239.88776685084264	-0.26341688888888815
-240.3418767526859	-0.2865084444444397
-240.7960082712545	-0.21685866666666698
-241.25016140810536	-0.34046044444444606
-241.7043361647715	-0.2725475555555507
-242.15853254280555	-0.3257653333333292
-242.61275054374707	-0.2416622222222213
-243.0669901691356	-0.2995377777777806
-243.52125142052373	-0.18435022222222566
-243.9755342994467	-0.27704711111111263
-244.42983880746144	-0.25152711111111176
-244.8841649461031	-0.26997688888889065
-245.33851271691785	-0.23633955555555683
-245.79288212145389	-0.21059555555555562
-246.24727316125296	-0.23572977777777446
-246.70168583786327	-0.32391999999999826
-247.15612015283094	-0.35283555555555923
-247.61057610769552	-0.2612568888888927
-248.06505370400956	-0.25793244444445007
-248.51955294331268	-0.2354062222222193
-248.97407382715957	-0.2561848888888926
-249.42861635708982	-0.19842488888889623
-249.8831805346495	-0.1611039999999937
-250.33776636138907	-0.24308444444444224
-250.79237383885018	-0.19705244444444867
-251.24700296858546	-0.2622311111111129
-251.7016537521388	-0.29794666666666875
-252.15632619105412	-0.27912888888888926
-252.61102028688612	-0.3359644444444469
-253.06573604117224	-0.24297244444445015
-253.52047345547157	-0.18608177777777504
-253.97523253132582	-0.28192355555555776
-254.43001327027892	-0.3152657777777818
-254.88481567388556	-0.14127822222222877
-255.33963974368754	-0.26936888888888966
-255.79448548124174	-0.13366044444445127
-256.24935288809206	-0.22819377777777844
-256.7042419657803	-0.1840355555555531
-257.1591527158676	-0.18476977777777293
-257.6140851398914	-0.15178488888889358
-258.0690392394087	-0.21241066666666786
-258.5240150159676	-0.035278222222227165
-258.9790124711121	0.015207111111117734
-259.43403160639696	-0.19697777777777647
-259.8890724233682	-0.15068622222221975
-260.34413492358055	-0.10066844444443834
-260.7992191085802	-0.14535111111110988
-261.254324979913	-0.10495466666667198
-261.70945253914044	-0.02296355555555945
-262.16460178779977	-0.11287111111111396
-262.6197727274523	-0.10623822222222871
-263.0749653596462	-0.10181866666666692
-263.5301796859234	0.02737600000000384
-263.98541570784704	-0.03050666666666479
-264.44067342695905	0.022433777777777223
-264.89595284481845	-0.005976888888892265
-265.35125396297354	-0.09441600000000715
-265.8065767829703	0.08819555555555174
-266.26192130636787	0.10794844444444203
-266.7172875347123	0.21071288888888376
-267.17267546956265	0.0360942222222204
-267.6280851124629	0.17757688888888676
-268.08351646497204	0.17658666666666653
-268.53896952864056	0.29355199999999765
-268.9944443050145	0.2830542222222236
-269.4499407956594	0.27753066666666
-269.90545900211276	0.26303822222222356
-270.3609989259423	0.40469155555556224
-270.816560568694	0.4311946666666659
-271.2721439319184	0.5091839999999986
-271.7277490171745	0.5465902222222212
-272.18337582601055	0.5827431111111057
-272.63902435998784	0.5952960000000005
-273.0946946206546	0.6782222222222238
-273.55038660956336	0.7549582222222266
-274.0061003282733	0.7748213333333357
-274.4618357783347	0.7853191111111099
-274.9175929613046	0.9242026666666707
-275.3733718787398	0.8266737777777841
-275.8291725321865	0.9181404444444504
-276.28499492320793	0.9573404444444491
-276.7408390533547	1.075356444444446
-277.19670492418584	1.0233831111111147
-277.652592537256	1.2209511111111109
-278.1085018941135	1.184935111111101
-278.56443299632394	1.1308817777777667
-279.0203858454355	1.0059235555555561
-279.4763604430117	1.1937422222222247
-279.93235679060496	1.2698133333333277
-280.3883748897658	1.4796106666666553
-280.8444147420598	1.4106186666666731
-281.3004763490374	1.3657137777777744
-281.7565597122598	1.5284391111111069
-282.21266483328174	1.5274026666666678
-282.6687917136558	1.6410346666666575
-283.1249403549498	1.5742542222222256
-283.58111075870755	1.7238257777777715
-284.03730292649897	1.8255697777777904
-284.4935168598746	1.824076444444444
-284.94975256039123	1.756239999999994
-285.4060100296145	1.8678275555555592
-285.86228926909047	1.7949439999999919
-286.31859028038906	1.8126702222222228
-286.774913065065	1.9028248888888952
-287.2312576246688	1.9032035555555518
-287.6876239607724	1.8753920000000086
-288.14401207492193	1.9067466666666668
-288.6004219686874	2.013342222222224
-289.05685364362125	2.044563555555554
-289.5133071012827	1.8354062222222112
-289.96978234323507	1.8472711111111049
-290.42627937103094	2.0337511111111155
-290.8827981862381	2.053500444444443
-291.33933879041354	2.0724711111111134
-291.795901185114	2.201592888888877
-292.25248537190305	2.1561546666666658
-292.7090913523375	2.103621333333334
-293.1657191279852	2.093605333333334
-293.62236870040084	2.225683555555556
-294.0790400711413	2.0595484444444367
-294.5357332417766	1.9727946666666605
-294.99244821385923	1.967096888888886
-295.4491849889592	1.975034666666664
-295.905943568629	2.1240231111111156
-296.36272395443643	2.0313777777777835
-296.8195261479427	1.999566222222218
-297.2763501507027	1.9131573333333332
-297.7331959642883	1.9635537777777872
-298.19006359025224	2.0492248888888893
-298.6469530301644	1.9108479999999852
-299.1038642855839	2.0771573333333233
-299.5607973580697	1.8551057777777735
-300.01775224919186	1.8544497777777886
-300.47472896050505	1.8674613333333239
-300.9317274935792	1.8610808888888923
-301.38874784997563	1.7269759999999952
-301.84579003125333	1.8908746666666574
-302.3028540389823	1.7260906666666658
-302.7599398747172	1.7012711111111114
-303.2170475400324	1.7309760000000016
-303.6741770364869	1.6409386666666737
-304.131328365642	1.5652124444444295
-304.5885015290654	1.614558222222226
-305.0456965283184	1.7274684444444333
-305.5029133649688	1.7713120000000022
-305.96015204058205	1.6144746666666632
-306.41741255671513	1.6245813333333192
-306.87469491494454	1.7583804444444509
-307.3319991168228	1.5585137777777789
-307.7893251639263	1.5244728888888817
-308.24667305781423	1.5802097777777817
-308.7040428000499	1.5891608888888893
-309.1614343922076	1.4032035555555518
-309.61884783584213	1.3791999999999986
-310.076283132532	1.4304551111111101
-310.5337402838342	1.2826666666666602
-310.9912192913122	1.4864124444444315
-311.4487201565444	1.4597439999999995
-311.90624288108575	1.3983626666666693
-312.36378746651036	1.521971555555566
-312.82135391438175	1.3950720000000083
-313.2789422262655	1.3561475555555564
-313.73655240373364	1.4377777777777778
-314.19418444834747	1.4423555555555503
-314.6518383616791	1.4321226666666755
-315.10951414529626	1.520428444444438
-315.5672118007624	1.4985902222222163
-316.0249313296495	1.444844444444445
-316.4826727335211	1.477667555555559
-316.94043601395146	1.4678364444444498
-317.39822117250606	1.3204266666666729
-317.8560282107506	1.4726560000000042
-318.3138571302593	1.5589546666666543
-318.7717079325934	1.5691768888888893
-319.22958061933156	1.3522417777777689
-319.6874751920349	1.310243555555547
-320.14539165227353	1.2764355555555569
-320.6033300016237	1.3669813333333232
-321.0612902416446	1.1893368888888896
-321.5192723739148	1.3604124444444379
-321.97727639999556	1.5584746666666534
-322.4353023214676	1.3059057777777747
-322.89335013989654	1.298101333333325
-323.35141985684584	1.3644017777777724
-323.809511473894	1.2551893333333364
-324.2676249926068	1.2192746666666547
-324.72576041456256	1.3748462222222264
-325.18391774132493	1.325642666666665
-325.64209697446375	1.3633653333333333
-326.10029811555756	1.1671822222222141
-326.5585211661699	1.325013333333336
-327.0167661278793	1.332924444444442
-327.4750330022557	1.2444124444444444
-327.93332179086246	1.425578666666665
-328.3916324952848	1.202067555555566
-328.8499651170839	1.3040284444444439
-329.30831965783835	1.3586951111111072
-329.76669611912024	1.2233439999999893
-330.2250945024952	1.2416764444444561
-330.6835148095483	1.320016
-331.1419570418386	1.323342222222224
-331.60042120094914	1.3168551111111042
-332.0589072884519	1.0138791111110994
-332.51741530591255	1.2471751111111047
-332.97594525491394	1.2295502222222179
-333.4344971370217	1.2100231111111093
-333.89307095381884	1.2536515555555525
-334.35166670687295	1.1392373333333268
-334.8102843977541	1.0509297777777828
-335.2689240280473	1.1645937777777726
-335.72758559931606	1.1314133333333303
-336.1862691131433	1.292067555555566
-336.644974571101	1.1111875555555646
-337.1037019747592	1.1038062222222247
-337.5624513257008	1.117372444444433
-338.02122262549136	1.0022311111111128
-338.4800158757182	1.037498666666668
-338.9388310779491	1.1456711111111184
-339.39766823375606	1.0502933333333284
-339.85652734472643	1.0299715555555626
-340.3154084124214	1.16960888888889
-340.77431143843046	1.0434097777777869
-341.2332364243257	1.0344568888888817
-341.69218337167484	1.233470222222208
-342.15115228206736	1.0634862222222243
-342.6101431570688	1.155674666666665
-343.0691559982643	1.0953048888888992
-343.52819080722816	1.1740320000000066
-343.9872475855324	1.0454755555555555
-344.44632633476215	1.0598488888888904
-344.9054270564873	1.1379839999999968
-345.3645497522931	1.1222773333333316
-345.8236944237515	0.9884782222222324
-346.28286107244105	1.0883431111111228
-346.74204969994264	0.9910400000000017
-347.2012603078305	0.98255466666666
-347.66049289768756	1.0931182222222238
-348.1197474710881	0.9948906666666638
-348.57902402961065	1.039343999999999
-349.0383225748382	0.9631431111111144
-349.49764310834286	1.0143679999999908
-349.9569856317119	0.9675928888888868
-350.41635014651735	1.0109706666666574
-350.87573665434434	1.2660408888889005
-351.33514515676933	1.0657706666666653
-351.79457565536876	0.9358257777777746
-352.25402815172765	1.0679857777777781
-352.71350264742256	1.1622328888888782
-353.17299914403844	1.0511928888888926
-353.63251764315186	1.1336728888888805
-354.0920581463392	1.0892728888888894
-354.55162065518766	1.105758222222228
-355.0112051712738	1.0526400000000042
-355.4708116961826	0.9171733333333395
-355.93044023149486	0.9640924444444439
-356.39009077878274	0.9265671111111199
-356.84976333964	0.8471324444444326
-357.3094579156387	0.8177137777777777
-357.7691745083682	0.78656711111112
-358.2289131194051	0.9528479999999885
-358.6886737503279	0.9391466666666707
-359.14845640272824	0.8017440000000028
-359.6082610781803	1.025838222222228
-360.0680877782715	0.8577546666666522
-360.52793650458244	1.0200017777777814
-360.9878072586919	0.9235573333333337
-361.4477000421891	0.9374559999999958
-361.90761485665286	1.0300177777777815
-362.3675517036703	0.9896408888888901
-362.8275105848223	0.9004924444444381
-363.2874915016873	0.9123893333333318
-363.7474944558571	0.9134097777777869
-364.207519448908	1.0470186666666672
-364.6675664824338	0.9138826666666622
-365.127635558011	0.9618204444444401
-365.58772667722025	1.038218666666669
-366.04783984165755	0.9556284444444464
-366.50797505289506	0.8581848888888878
-366.96813231252645	0.8453617777777739
-367.42831162213474	0.8346453333333355
-367.8885129832984	0.8723786666666759
-368.3487363976114	0.9172515555555583
-368.80898186665	0.8246435555555541
-369.2692493920103	0.8525475555555668
-369.7295389752707	0.8729671111111141
-370.1898506180165	0.7868995555555577
-370.650184321837	0.8096426666666715
-371.1105400883131	0.6788426666666701
-371.57091791903844	0.914394666666663
-372.03131781559597	0.7342079999999906
-372.49173977956656	0.9066986666666668
-372.9521838125461	0.8935075555555684
-373.41264991611314	0.7769759999999951
-373.8731380918637	0.8726755555555509
-374.33364834137853	0.7247253333333356
-374.79418066624055	0.8090613333333264
-375.25473506804786	0.7559075555555561
-375.7153115483769	0.8163999999999941
-376.175910108828	0.8672959999999956
-376.63653075097534	0.762062222222222
-377.0971734764193	0.6497333333333275
-377.55783828674055	0.864113777777788
-378.0185251835264	0.8134862222222242
-378.4792341683706	0.7665155555555571
-378.93996524285615	0.7855395555555555
-379.40071840857894	0.7288177777777795
-379.8614936671241	0.7082168888888878
-380.32229102007454	0.8075608888889029
-380.7831104690306	0.7053102222222111
-381.2439520155708	0.7561244444444472
-381.7048156612955	0.7991786666666707
-382.1657014077876	0.6784533333333255
-382.62660925663437	0.9049599999999919
-383.08753920943604	0.7158204444444467
-383.5484912677691	0.727011555555558
-384.0094654332361	0.8217600000000028
-384.4704617074219	0.834410666666663
-384.93148009191395	0.9353777777777739
-385.39252058831033	0.8122311111111129
-385.85358319819613	0.8927857777777697
-386.31466792316513	0.8792728888888895
-386.77577476480894	0.8749991111111012
-387.23690372471486	0.8717102222222214
-387.69805480448093	0.8687537777777794
-388.1592280056902	0.787482666666668
-388.6204233299428	0.8538364444444435
-389.08164077882833	0.747768888888887
-389.54288035393176	0.7632426666666773
-390.0041420568578	0.8213600000000022
-390.4654258891872	0.906250666666666
-390.9267318525224	0.7861599999999938
-391.38805994845063	0.8239822222222251
-391.84941017856136	0.8744035555555537
-392.3107825444549	0.8155946666666649
-392.7721770477185	0.7594933333333271
-393.23359368995244	0.734394666666663
-393.69503247274616	0.7650222222222267
-394.156493397687	0.6721724444444408
-394.6179764663816	0.7658542222222281
-395.0794816804108	0.8516942222222214
-395.54100904138147	0.6836835555555525
-396.00255855087863	0.8663164444444474
-396.46413021049824	0.9029368888888955
-396.9257240218384	0.8392106666666708
-397.3873399864864	0.8006097777777823
-397.84897810604895	0.7574648888888866
-398.3106383821113	0.6660319999999936
-398.7723208162693	0.7668568888888856
-399.23402541012325	0.7401617777777816
-399.6957521652626	0.6151626666666642
-400.15750108328984	0.7768195555555576
-400.61927216579863	0.8269262222222137
-401.08106541437854	0.7531715555555517
-401.5428808306341	0.7499448888888905
-402.00471841615257	0.6557137777777744
-402.46657817254084	0.6999431111111092
-402.92846010139044	0.7758719999999933
-403.39036420429517	0.7681991111111064
-403.8522904828575	0.7597137777777809
-404.31423893866685	0.8312177777777834
-404.7762095733278	0.9108213333333293
-405.238202388432	0.8222755555555502
-405.70021738558626	0.7163004444444474
-406.1622545663778	0.7379662222222153
-406.62431393240695	0.6986293333333419
-407.0863954852761	0.7449208888888825
-407.5484992265748	0.7332071111111145
-408.0106251579119	0.77081422222222
-408.47277328088114	0.7469884444444486
-408.9349435970765	0.6879288888888874
-409.39713610810236	0.6800053333333279
-409.85935081555266	0.724817777777773
-410.3215877210341	0.7200586666666722
-410.7838468261427	0.8646808888888821
-411.24612813247	0.8784337777777789
-411.70843164162716	0.7573493333333399
-412.17075735520143	0.7666862222222133
-412.63310527480616	0.7720177777777847
-413.09547540203505	0.7537102222222246
-413.55786773848195	0.8056551111111023
-414.0202822857579	0.7216408888888933
-414.48271904545237	0.8325884444444415
-414.9451780191766	0.8518791111111124
-415.4076592085263	0.786689777777776
-415.8701626150998	0.8329866666666608
-416.3326882405038	0.7214453333333303
-416.79523608633207	0.8294471111111085
-417.25780615419364	0.8863999999999942
-417.7203984456865	0.694896000000008
-418.18301296240884	0.8850044444444454
-418.6456497059696	0.7653795555555553
-419.1083086779626	0.8637031111111153
-419.5709898799967	0.8493653333333269
-420.03369331367446	0.794928000000008
-420.4964189805896	1.0128764444444418
-420.9591668823554	0.8770773333333233
-421.4219370205635	0.8109120000000015
-421.88472939682936	0.7570062222222138
-422.34754401274677	0.6927324444444417
-422.8103808699181	0.8207946666666733
-423.27323996995455	0.9472835555555583
-423.7361213144521	0.7254097777777739
-424.19902490501954	0.6930595555555515
-424.6619507432595	0.7459519999999935
-425.12489883077006	0.753210666666661
-425.58786916916443	0.7353955555555552
-426.05086176003863	0.6444373333333351
-426.51387660500376	0.7525813333333321
-426.97691370566224	0.7942204444444441
-427.43997306361445	0.6674364444444412
-427.9030546804714	0.7167004444444481
-428.3661585578313	0.7577564444444417
-428.8292846973095	0.7460533333333297
-429.292433100502	0.6554524444444461
-429.7556037690157	0.6672444444444409
-430.2187967044615	0.6740088888888891
-430.6820119084355	0.6453973333333286
-431.1452493825554	0.6309084444444387
-431.60850912842125	0.6412124444444472
-432.0717911476357	0.5856480000000011
-432.5350954418141	0.47936711111111635
-432.9984220125525	0.601248000000002
-433.46177086146844	0.5805208888888834
-433.92514199015784	0.5168373333333309
-434.38853540023626	0.6387715555555608
-434.85195109331045	0.7108497777777747
-435.3153890709785	0.7395324444444445
-435.7788493348602	0.5999359999999999
-436.24233188655154	0.4738879999999982
-436.7058367276723	0.5323999999999958
-437.16936385982274	0.6861439999999938
-437.6329132846097	0.5447448888888903
-438.0964850036464	0.5334542222222162
-438.56007901853536	0.5118222222222216
-439.02369533089416	0.5620800000000034
-439.4873339423253	0.6222951111111049
-439.95099485443336	0.5391679999999986
-440.414678068836	0.490206222222219
-440.87838358713776	0.5009315555555561
-441.3421114109499	0.5584853333333336
-441.80586154188336	0.4413084444444394
-442.2696339815386	0.3613351111111034
-442.7334287315375	0.3630275555555515
-443.1972457934826	0.487911111111114
-443.66108516898703	0.4417102222222214
-444.12494685966203	0.3747448888888903
-444.58883086711216	0.5490257777777798
-445.05273719295514	0.5031022222222237
-445.51666583879336	0.4661031111111111
-445.98061680624875	0.540592000000001
-446.444590096926	0.6111395555555484
-446.9085857124297	0.4831111111111143
-447.3726036543862	0.511507555555557
-447.8366439243913	0.4635857777777791
-448.3007065240715	0.5648657777777811
-448.76479145502907	0.5217368888888935
-449.2288987188752	0.6320142222222219
-449.69302831722763	0.6250506666666641
-450.157180251693	0.6562328888888846
-450.62135452389117	0.5565191111111117
-451.08555113543105	0.5638311111111074
-451.54977008791735	0.5939644444444436
-452.0140113829763	0.5381848888888877
-452.47827502221037	0.5010346666666656
-452.94256100724374	0.5476302222222229
-453.4068693396809	0.6078080000000046
-453.8712000211331	0.5652817777777738
-454.33555305322227	0.6362133333333299
-454.7999284375574	0.6870453333333313
-455.26432617575387	0.645251555555555
-455.72874626942934	0.5848942222222184
-456.19318872018846	0.6685760000000058
-456.65765352965536	0.6557439999999931
-457.12214069943684	0.6727946666666685
-457.5866502311548	0.6685653333333337
-458.0511821264226	0.758751999999998
-458.5157363868469	0.6629546666666688
-458.9803130140564	0.6639217777777715
-459.4449120096556	0.7286897777777792
-459.90953337526634	0.6850240000000001
-460.3741771125043	0.548143999999997
-460.8388432229783	0.644003555555553
-461.3035317083125	0.6467093333333388
-461.7682425701159	0.7230435555555595
-462.2329758100126	0.6452835555555552
-462.6977314296115	0.6806684444444383
-463.16250943053467	0.6892071111111161
-463.6273098143997	0.8316266666666666
-464.0921325828155	0.6904266666666646
-464.5569777374085	0.7260266666666656
-465.02184527978966	0.7074222222222225
-465.48673521158105	0.6242506666666627
-465.9516475343981	0.8780853333333329
-466.4165822498541	0.6732817777777705
-466.8815393595732	0.7591786666666627
-467.3465188651687	0.8570097777777765
-467.81152076826686	0.7319911111111125
-468.2765450704789	0.7352160000000003
-468.74159177342017	0.7357439999999931
-469.20666087871916	0.8751608888888829
-469.6717523879849	0.7269084444444404
-470.13686630284576	0.8498382222222265
-470.60200262491514	0.9302755555555551
-471.0671613558106	0.787720888888887
-471.53234249715626	0.9498168888888904
-471.9975460505677	0.9863306666666661
-472.46277201766884	0.9247431111111089
-472.9280204000775	0.9177902222222232
-473.39329119940913	0.9481671111111144
-473.85858441729425	0.869815111111109
-474.3239000553419	1.034517333333327
-474.78923811518274	0.9391679999999987
-475.25459859843215	1.0787555555555526
-475.71998150670566	1.1572835555555583
-476.18538684163605	1.0503839999999924
-476.65081460483447	1.0067555555555574
-477.1162647979293	1.200016
-477.58173742254047	1.1666008888888852
-478.0472324802834	1.276208000000002
-478.51274997278654	1.2101137777777815
-478.9782899016675	1.301315555555557
-479.44385226855474	1.169255111111108
-479.90943707506597	1.2874364444444413
-480.37504432282094	1.3361528888888845
-480.8406740134481	1.3295573333333273
-481.30632614856296	1.4918311111111122
-481.77200072979826	1.4306222222222196
-482.23769775876957	1.4273955555555586
-482.70341723709873	1.5043395555555537
-483.1691591664165	1.7153066666666645
-483.63492354833824	1.6100835555555548
-484.1007103844946	1.781470222222221
-484.56651967650765	1.8578151111111059
-485.0323514259949	1.9431395555555517
-485.4982056345892	1.904976
-485.96408230390824	1.886526222222221
-486.4299814355826	2.0107111111111107
-486.8959030312342	2.20270044444445
-487.36184709248295	2.123326222222216
-487.8278136209637	2.196991999999995
-488.2938026182899	2.2808800000000016
-488.75981408609636	2.4785048888888883
-489.2258480260008	2.6322311111111127
-489.691904439636	2.6065066666666663
-490.1579833286262	2.7244817777777723
-490.62408469459103	3.0384515555555605
-491.09020853916337	3.078515555555552
-491.55635486396307	3.2003075555555553
-492.02252367062505	3.489491555555562
-492.4887149607713	3.7361404444444473
-492.95492873602154	3.9957546666666652
-493.42116499801523	4.296163555555556
-493.8874237483699	4.427041777777776
-494.35370498871833	4.808348444444443
-494.82000872068477	5.080344888888892
-495.28633494589326	5.557512888888887
-495.75268366598095	5.9936177777777795
-496.21905488256334	6.34507911111111
-496.68544859727973	6.732131555555558
-497.15186481175425	7.3190044444444435
-497.6183035276089	7.8086471111111155
-498.08476474648074	8.411459555555549
-498.55124846999183	9.060444444444446
-499.01775469977713	9.420901333333337
-499.48428343746286	10.08790044444445
-499.9508346846732	10.634753777777782
-500.41740844304326	11.061939555555549
-500.88400471419914	11.499155555555554
-501.35062349977375	11.680741333333337
-501.81726480139554	12.076671999999995
-502.2839286206865	12.250147555555555
-502.75061495929026	12.334538666666663
-503.2173238188244	12.387880888888887
-503.68405520092836	12.105811555555556
-504.1508091072283	11.911888000000003
-504.61758553935283	11.594191999999998
-505.08438449893686	11.211120000000001
-505.55120598760664	10.584335999999999
-506.0180500070016	10.23185244444445
-506.48491655874574	9.665024
-506.95180564446764	9.265857777777775
-507.41871726580655	8.778588444444443
-507.88565142438887	8.058302222222224
-508.3526081218494	7.574378666666663
-508.8195873598211	6.897631999999996
-509.28658913993024	6.360437333333329
-509.75361346381396	6.100016
-510.2206603331029	5.533544888888889
-510.68772974943204	5.201975111111104
-511.15482171443193	4.816076444444439
-511.62193622973336	4.472257777777777
-512.0890732969756	4.170117333333328
-512.5562329177849	3.8168213333333307
-513.0234150938005	3.494081777777772
-513.4906198266532	3.2064657777777756
-513.9578471179736	3.0784373333333335
-514.4250969694032	2.7871733333333313
-514.8923693825683	2.6436231111111073
-515.359664359108	2.4957724444444467
-515.8269819006576	2.3970631111111125
-516.2943220088432	2.2290968888888893
-516.7616846853108	2.231041777777775
-517.2290699316843	1.9006382222222278
-517.6964777496096	1.8862471111111114
-518.163908140711	2.0150364444444455
-518.631361106634	1.8726168888888868
-519.0988366490074	1.6347039999999995
-519.566334769466	1.6325457777777774
-520.0338554696514	1.47874666666667
-520.5013987511918	1.3974399999999958
-520.9689646157333	1.3576551111111055
-521.4365530649043	1.2732284444444424
-521.9041641003398	1.271569777777776
-522.3717977236855	1.2191857777777801
-522.8394539365678	1.4367377777777761
-523.3071327406303	1.1847839999999996
-523.7748341375102	1.1533226666666694
-524.2425581288381	1.1259484444444388
-524.7103047162577	1.0624888888888866
-525.1780739014017	1.1035199999999976
-525.6458656859161	0.9679360000000048
-526.1136800714314	0.954970666666664
-526.5815170595826	0.9793777777777803
-527.0493766520176	0.9790115555555612
-527.5172588503651	0.900016
-527.9851636562729	0.859354666666671
-528.4530910713738	0.9025635555555588
-528.921041097303	0.8084693333333336
-529.3890137357082	0.8091413333333346
-529.8570089882202	0.7270168888888939
-530.3250268564869	0.7153315555555552
-530.7930673421413	0.6813617777777755
-531.2611304468224	0.6356817777777743
-531.7292161721742	0.6395431111111086
-532.1973245198315	0.6112284444444392
-532.6654554914422	0.6512728888888847
-533.1336090886414	0.5769173333333311
-533.601785313064	0.5976515555555589
-534.0699841663625	0.6041386666666626
-534.5382056501651	0.5404817777777741
-535.0064497661222	0.6340586666666624
-535.4747165158728	0.5721226666666674
-535.9430059010523	0.4453208888888831
-536.4113179233105	0.4944159999999991
-536.8796525842805	0.5716106666666666
-537.3480098856102	0.47705777777777664
-537.8163898289408	0.5243519999999989
-538.2847924159098	0.5403377777777738
-538.7532176481628	0.4341102222222253
-539.2216655273393	0.42578844444443853
-539.6901360550871	0.33926577777778016
-540.1586292330456	0.41730311111110496
-540.6271450628542	0.3553582222222273
-541.0956835461608	0.3806631111111104
-541.5642446846047	0.485187555555555
-542.0328284798338	0.24532088888888312
-542.5014349334875	0.40868977777777926
-542.9700640472074	0.2688515555555609
-543.4387158226458	0.2939146666666703
-543.9073902614354	0.28768711111111367
-544.3760873652284	0.2221315555555581
-544.8448071356644	0.2872408888888862
-545.3135495743911	0.27637155555555687
-545.7823146830525	0.22308266666666896
-546.2511024632898	0.1713973333333302
-546.7199129167511	0.36644088888888493
-547.1887460450778	0.29543644444444606
-547.6576018499223	0.24926222222222552
-548.1264803329261	0.1763768888888929
-548.5953814957263	0.5018577777777763
-549.0643053399817	0.2564817777777757
-549.5332518673296	0.30821155555555985
-550.0022210794199	0.26745066666665984
-550.4712129778986	0.2850933333333362
-550.9402275644072	0.2710808888888844
-551.4092648405979	0.32620622222222057
-551.8783248081123	0.289127111111116
-552.3474074686026	0.3322168888888862
-552.8165128237125	0.27423288888888137
-553.2856408750857	0.31234133333333175
-553.7547916243768	0.22882133333333413
-554.2239650732248	0.25954666666666326
-554.6931612232867	0.20741511111110514
-555.1623800762037	0.26444799999999913
-555.6316216336218	0.20555022222221953
-556.1008858971953	0.32019022222222704
-556.5701728685659	0.2786311111111071
-557.0394825493881	0.3241226666666706
-557.5088149413075	0.2193208888888896
-557.9781700459702	0.24654222222222114
-558.4475478650304	0.21761777777777752
-558.9169484001297	0.2432622222222239
-559.386371652927	0.33133511111110336
-559.8558176250638	0.3438435555555528
-560.32528631819	0.2619360000000031
-560.7947777339583	0.08400711111111579
-561.2642918740142	0.18877511111110734
-561.7338287400167	0.2258080000000013
-562.2033883336073	0.20157866666666652
-562.6729706564339	0.1622062222222222
-563.1425757101575	0.22420266666667077
-563.6122034964175	0.26791999999999666
-564.0818540168725	0.11672177777777606
-564.551527273173	0.11584177777777464
-565.0212232669624	0.13531200000000052
-565.4909419999018	0.10867377777777923
-565.9606834736326	0.185008
-566.4304476898159	0.23400355555555305
-566.9002346500974	0.24450666666666318
-567.3700443561296	0.11880888888888876
-567.8398768095669	0.2221315555555581
-568.3097320120551	0.0913884444444395
-568.7796099652572	0.1660746666666657
-569.2495106708194	0.181057777777775
-569.7194341303895	0.1689511111111076
-570.1893803456304	0.20196977777777647
-570.659349318184	0.12617244444444725
-571.1293410497154	0.18357333333333373
-571.5993555418705	0.23354488888888833
-572.0693927962996	0.20975466666667167
-572.5394528146655	0.07930844444444422
-573.0095355986142	0.14582222222221997
-573.4796411498047	0.28222933333333966
-573.9497694698848	0.20511466666666417
-574.4199205605177	0.09223822222222225
-574.8900944233535	0.20575111111111052
-575.3602910600403	0.1880355555555515
-575.8305104722433	0.16716622222222213
-576.3007526616063	0.2735466666666697
-576.7710176297967	0.05756088888888674
-577.2413053784647	0.22402844444444378
-577.7116159092583	0.24083911111111067
-578.1819492238428	0.11152888888888507
-578.6523053238684	0.26237155555555847
-579.1226842109961	0.10049066666666477
-579.5930858868782	0.2426506666666602
-580.0635103531647	0.29174399999999473
-580.5339576115255	0.2154702222222194
-581.0044276636041	0.19089955555554802
-581.4749205110681	0.26696355555555784
-581.9454361555678	0.21905066666666242
-582.4159745987595	0.2731733333333331
-582.8865358423045	0.23909866666666252
-583.3571198878527	0.34192888888888573
-583.8277267370719	0.2540426666666705
-584.2983563916141	0.31704533333333124
-584.7690088531341	0.29843377777777885
-585.239684123297	0.20988444444444515
-585.710382203751	0.38599644444443887
-586.1811030961655	0.14642844444443956
-586.6518468021932	0.2808800000000014
-587.1226133234903	0.1847253333333275
-587.5934026617203	0.17885688888888884
-588.0642148185354	0.3352177777777736
-588.5350497956055	0.23423999999999878
-589.0059075945825	0.2201280000000002
-589.4767882171211	0.281470222222221
-589.9476916648932	0.34907555555555314
-590.4186179395447	0.20137955555554882
-590.8895670427494	0.27516088888888285
-591.3605389761575	0.28414755555555327
-591.8315337414301	0.20732088888888636
-592.3025513402324	0.31240177777777717
-592.7735917742168	0.24334222222222404
-593.2446550450552	0.2663786666666662
-593.7157411543999	0.2235217777777709
-594.1868501039118	0.33179022222222154
-594.6579818952584	0.3795591111111086
-595.1291365300922	0.28364444444444314
-595.6003140100827	0.29686222222222164
-596.0715143368888	0.4068248888888936
-596.542737512167	0.2713066666666661
-597.0139835375894	0.3253208888888831
-597.4852524148062	0.2477404444444498
-597.956544145491	0.2603217777777738
-598.427858731303	0.3532071111111145
-598.8991961738965	0.2220408888888859
-599.3705564749457	0.26303466666666886
-599.8419396361027	0.2949511111111092
-600.3133456590438	0.26121422222222057
-600.7847745454213	0.45285333333333255
-601.2562262969005	0.34928711111111627
-601.7277009151491	0.41246044444444935
-602.1991984018235	0.44394844444444365
-602.6707187585978	0.23345422222221612
-603.1422619871244	0.2712053333333299
-603.6138280890793	0.268741333333334
-604.0854170661194	0.3354702222222194
-604.5570289199077	0.3633742222222241
-605.0286636521159	0.3186968888888886
-605.5003212644011	0.1273262222222224
-605.9720017584369	0.24470044444444486
-606.4437051358823	0.19077511111111056
-606.9154313984005	0.33961777777778074
-607.3871805476632	0.26732444444444103
-607.8589525853293	0.2648071111111171
-608.3307475130752	0.21537955555555527
-608.8025653325572	0.23700088888888585
-609.2744060454429	0.19067555555555574
-609.746269653402	0.26392711111111566
-610.2181561580957	0.2946595555555541
-610.6900655611998	0.3121155555555581
-611.1619978643735	0.3918737777777844
-611.6339530692818	0.2639342222222169
-612.1059311775989	0.21996622222221857
-612.5779321909837	0.12857777777777907
-613.0499561111144	0.21497599999999997
-613.522002939652	0.18229688888888632
-613.9940726782619	0.14746666666666797
-614.4661653286181	0.23398933333333438
-614.9382808923816	0.2465155555555571
-615.4104193712285	0.35335999999999734
-615.8825807668243	0.20571555555555582
-616.3547650808298	0.29475555555555427
-616.8269723149278	0.2981511111111144
-617.2992024707728	0.27579555555555596
-617.7714555500473	0.23298311111110606
-618.2437315544126	0.19552888888889153
-618.7160304855361	0.10449955555555385
-619.1883523450938	0.24559288888888356
-619.660697134749	0.11139911111111157
-620.13306485618	0.17763377777777756
-620.6054555110501	0.24685333333333093
-621.0778691010266	0.16012266666667224
-621.5503056277902	0.3154702222222194
-622.0227650929996	0.29790755555555126
-622.4952474983354	0.24900088888888908
-622.9677528454652	0.31172444444444003
-623.4402811360561	0.2719573333333311
-623.9128323717847	0.2391004444444439
-624.3854065543161	0.10144711111111165
-624.8580036853288	0.1305973333333289
-625.3306237664923	0.20422755555555341
-625.8032667994721	0.19562666666666498
-626.2759327859509	0.17037511111110992
-626.7486217275895	0.14035733333332853
-627.2213336260706	0.20912888888888928
-627.6940684830619	0.1948533333333358
-628.1668263002308	0.1912764444444393
-628.6396070792599	0.21861511111110707
-629.1124108218147	0.22410666666666254
-629.5852375295735	0.17207288888888594
-630.058087204208	0.18416177777777193
-630.5309598473858	0.27747733333333197
-631.0038554607918	0.2030328888888875
-631.4767740460869	0.14912711111111598
-631.949715604956	0.24642844444443956
-632.4226801390668	0.13787911111111398
-632.8956676500972	0.28843377777777884
-633.3686781397193	0.1100462222222187
-633.841711609605	0.2577706666666604
-634.3147680614369	0.16740444444444114
-634.7878474968803	0.21058488888889162
-635.260949917618	0.13966222222221808
-635.7340753253238	0.16096177777777484
-636.2072237216655	0.1600906666666641
-636.680395108332	0.19871822222222463
-637.1535894869845	0.17237333333333177
-637.6268068593121	0.19255288888888672
-638.1000472269844	0.06835022222222405
-638.5733105916712	0.22519822222222705
-639.0465969550617	0.13096888888889224
-639.5199063188232	0.2130133333333328
-639.9932386846386	0.059518222222225935
-640.4665940541819	0.1261937777777833
-640.9399724291247	0.05729422222222234
-641.4133738111522	0.31155911111111184
-641.8867982019359	0.11087644444443867
-642.3602456031609	0.16686222222222163
-642.8337160165011	0.18736355555555848
-643.3072094436261	0.12823288888888784
-643.7807258862275	0.16919111111110802
-644.2542653459725	0.15935288888888155
-644.7278278245462	0.10729244444444905
-645.2014133236269	0.17301688888888747
-645.6750218448863	0.21040000000000064
-646.1486533900114	0.13652977777777575
-646.6223079606742	0.10930844444444422
-647.0959855585617	0.19756088888888673
-647.5696861853479	0.1474542222222226
-648.0434098427089	0.18041955555555533
-648.517156532334	0.08835911111111475
-648.9909262558926	0.20613511111111116
-649.4647190150743	0.057048888888885915
-649.9385348115528	0.2727199999999963
-650.4123736470087	0.13860799999999776
-650.8862355231247	0.14109866666666576
-651.3601204415792	0.04373333333333398
-651.8340284040569	0.2198079999999997
-652.3079594122363	0.06319644444444243
-652.7819134677934	0.1441902222222254
-653.2558905724176	0.13296177777777
-653.729890727785	0.016152888888884467
-654.2039139355825	-0.004698666666663485
-654.6779601974886	0.1183644444444427
-655.1520295151794	0.029269333333334847
-655.6261218903484	0.07486044444444512
-656.1002373246653	0.14062933333333705
-656.5743758198258	0.15064711111111037
-657.0485373775061	0.18732266666666772
-657.5227219993824	0.15773511111110566
-657.9969296871503	0.1497333333333356
-658.4711604424795	0.12728711111111302
-658.9454142670658	0.15842488888888814
-659.4196911625829	0.08247466666666797
-659.8939911307226	0.12657955555554912
-660.3683141731628	0.03961777777778075
-660.8426602915866	0.06541511111110998
-661.3170294876829	-0.025982222222220217
-661.7914217631302	0.059815111111109015
-662.2658371196176	0.08942755555555373
-662.7402755588298	0.16841422222221605
-663.2147370824455	0.14267911111111364
-663.689221692158	0.10721244444444893
-664.1637293896434	0.20289244444444193
-664.6382601765955	0.20222044444444892
-665.1128140546946	0.20356444444444302
-665.5873910256255	0.1231075555555516
-666.0619910910776	0.027463111111105214
-666.5366142527313	0.0860302222222203
-667.0112605122779	0.08398755555555303
-667.4859298714044	0.0696319999999994
-667.9606223317894	0.18611911111111112
-668.4353378951283	0.17584888888889205
-668.9100765630996	0.02966577777778083
-669.3848383373968	0.1505884444444382
-669.8596232197068	0.10639466666666622
-670.3344312117081	0.031367111111111526
-670.8092623150985	0.06969244444444485
-671.2841165315585	0.1905617777777742
-671.7589938627817	0.2102471111111178
-672.2338943104508	0.12051555555555549
-672.7088178762548	0.0976657777777776
-673.183764561883	0.08733333333333172
-673.6587343690223	0.10604266666666566
-674.1337272993643	0.1605422222222195
-674.608743354596	0.1062417777777753
-675.0837825364019	-0.006131555555556487
-675.5588448464781	0.08882311111110741
-676.0339302865049	-0.03507377777778149
-676.5090388581823	0.014218666666662709
-676.9841705631953	-0.07416888888888934
-677.4593254032266	0.01677155555555752
-677.9345033799782	-0.05712533333333138
-678.4097044951285	0.018412444444442774
-678.8849287503776	0.0612960000000021
-679.3601761474104	-0.07697422222222182
-679.8354466879138	0.03583822222222807
-680.3107403735858	-0.01185955555554958
-680.786057206111	-0.09865422222222454
-681.2613971871875	0.040977777777774865
-681.7367603185022	0.17481244444444505
-682.2121466017401	0.023880888888888875
-682.6875560386053	0.05033244444444588
-683.1629886307785	-0.08363555555555245
-683.6384443799576	0.08070222222221976
-684.113923287836	0.006668444444439956
-684.5894253560965	0.020638222222227744
-685.0649505864411	-0.03084088888888396
-685.5404989805548	0.083960888888889
-686.0160705401399	0.08600355555555628
-686.4916652668811	-0.05028622222221909
-686.9672831624697	-0.04190044444444842
-687.4429242286059	0.12685333333333093
-687.9185884669744	0.06507022222222683
-688.3942758792797	0.027580444444449514
-688.8699864672043	-0.020663111111110386
-689.3457202324506	-0.04056355555555557
-689.8214771767098	0.008442666666669539
-690.297257301669	-0.029962666666671994
-690.7730606090347	-0.009463111111108447
-691.2488871004896	0.013422222222224162
-691.724736777736	0.0313333333333301
-692.200609642465	-0.03789688888888729
-692.676505696379	0.18845511111110683
-693.1524249411607	-0.04838933333333342
-693.6283673785099	-0.05661511111111193
-694.1043330101269	-0.04752888888888669
-694.5803218376986	-0.023361777777778724
-695.0563338629294	-0.10513600000000022
-695.5323690875149	-0.062305777777777016
-696.0084275131466	-0.07162488888889332
-696.4845091415157	0.06880533333333409
-696.960613974331	-0.06828444444444257
-697.4367420132794	0.03497777777777325
-697.9128932600655	0.060783999999993184
-698.3890677163805	0.04818488888888775
-698.86526538392	0.02940266666667109
-699.3414862643842	-0.028705777777779277
-699.8177303594688	0.06601600000000164
-700.2939976708781	0.02628444444444742
-700.770288200299	-0.07134044444444751
-701.246601949436	-0.05581155555555597
-701.7229389199848	0.008847999999998137
-702.1992991136455	0.009125333333334614
-702.6756825321179	-0.0755253333333288
-703.1520891770979	-0.00048177777777406544
-703.628519050281	0.03900622222221702
-704.1049721533718	-0.02543822222222742
-704.5814484880658	-0.030419555555555335
-705.0579480560675	-0.09705066666666728
-705.5344708590682	-0.12483733333332768
-706.0110168987721	-0.028922666666670316
-706.4875861768753	-0.025573333333336955
-706.964178695086	0.057409777777777185
-707.440794455096	-0.09378133333333406
-707.9174334586095	-0.07587733333332936
-708.3940957073221	-0.05759822222222283
-708.8707812029381	-0.008323555555560032
-709.3474899471622	-0.05684622222222161
-709.8242219416854	0.021057777777774997
-710.300977188221	0.005886222222220062
-710.777755688456	-0.08535822222222729
-711.2545574441032	-0.05705244444444866
-711.7313824568585	0.023699555555552556
-712.2082307284262	-0.02769955555555094
-712.6851022605063	0.0656693333333371
-713.1619970548032	-0.00627555555555672
-713.638915113017	0.011198222222228651
-714.1158564368476	-0.042599111111113516
-714.5928210279995	-0.09319111111111447
-715.0698088881813	0.06564444444444638
-715.5468200190887	-0.031166222222220513
-716.0238544224261	-0.0033084444444426075
-716.5009120998935	-0.12036977777777388
-716.977993053204	-0.0028248888888952528
-717.4550972840533	-0.13869511111110722
-717.9322247941457	0.0109191111111108
-718.4093755851854	-0.09417777777778004
-718.8865496588771	-0.038648888888888504
-719.3637470169251	0.013303111111106571
-719.8409676610379	-0.051418666666666266
-720.3182115929113	-0.00020088888889101023
-720.7954788142584	-0.06674311111111213
-721.2727693267748	-0.07421688888888942
-721.7500831321736	-0.06646399999999428
-722.2274202321591	0.01387733333332613
-722.7047806284315	-0.09049422222221942
-723.1821643226992	-0.06641600000000229
-723.6595713166713	-0.09904177777777173
-724.1370016120475	-0.06141866666666627
-724.6144552105366	0.059825777777781086
-725.0919321138472	-0.12230755555555839
-725.5694323236796	0.009116444444443914
-726.0469558417466	-0.03762133333333218
-726.5245026697527	-0.1494933333333352
-727.0020728094022	-0.08856177777777904
-727.4796662624082	-0.13932266666667095
-727.9572830304705	-0.061304888888892795
-728.4349231152981	-0.006986666666667184
-728.912586518604	-0.01438933333333504
-729.3902732420881	-0.09329600000000533
-729.8679832874678	-0.0224551111111052
-730.3457166564433	-0.005735111111110503
-730.823473350723	-0.00965866666666342
-731.3012533720158	0.011050666666665671
-731.7790567220347	-0.06664711111111198
-732.2568834024842	-0.051011555555556296
-732.7347334150727	0.010808888888891994
-733.212606761509	-0.029523555555553888
-733.6905034435065	-0.04455999999999929
-734.1684234627734	-0.057893333333332624
-734.6463668210187	-0.11187022222222165
-735.1243335199466	-0.06369955555555255
-735.6023235612747	-0.11802844444444216
-736.0803369467071	-0.026657777777775966
-736.5583736779571	-0.10948088888888985
-737.0364337567376	-0.00999288888888259
-737.5145171847528	0.03286577777777792
-737.992623963716	-0.0023128888888863408
-738.4707540953402	-0.002590222222222817
-738.948907581334	-0.05468622222221812
-739.4270844234062	-0.10727466666666766
-739.9052846232784	-0.024881777777773097
-740.3835081826508	-0.025034666666672114
-740.8617551032362	-0.09182755555555762
-741.3400253867522	-0.06165688888889336
-741.8183190349074	-0.013719111111115328
-742.2966360494192	-0.03159644444443984
-742.774976431992	-0.01665066666666664
-743.2533401843431	-0.020128000000000208
-743.7317273081812	0.021429333333338338
-744.2101378052195	0.035747555555555866
-744.6885716771794	0.026716444444440032
-745.1670289257655	-0.06042488888889137
-745.6455095526909	-0.06398222222222506
-746.1240135596728	-0.03798577777777811
-746.6025409484243	-0.02831644444444262
-747.0810917206585	0.06965688888889013
-747.5596658780928	-0.07419733333332665
-748.0382634224356	0.03699377777777651
-748.5168843554004	-0.009503999999999199
-748.9955286787085	0.0041777777777800415
-749.4741963940733	0.004616888888890066
-749.9528875032032	-0.040320000000000515
-750.4316020078201	-0.06429866666666284
-750.910339909637	0.025934222222220138
-751.3891012103668	-0.009432888888889768
-751.8678859117314	-0.06895822222222503
-752.3466940154394	-0.06516800000000027
-752.8255255232082	-0.08783822222222322
-753.3043804367552	-0.11258844444444144
-753.7832587577979	0.07336177777777064
-754.2621604880533	-0.018636444444443137
-754.7410856292348	-0.05584000000000136
-755.2200341830596	-0.09730133333333167
-755.6990061512452	0.001589333333338598
-756.1780015355046	-0.15007822222222683
-756.6570203375636	-0.015347555555555219
-757.1360625591357	-0.1181351111111063
-757.6151282019335	-0.10735466666666778
-758.0942172676833	-0.017248000000003635
-758.5733297580939	0.005269333333336464
-759.0524656748911	-0.05504355555555473
-759.5316250197924	-0.06986488888889046
-760.0108077945107	-0.08844088888888817
-760.4900140007636	-0.1550631111111094
-760.9692436402813	-0.013548444444442996
-761.4484967147683	-0.029704888888890207
-761.927773225955	-0.017240888888886224
-762.4070731755543	0.01280355555555919
-762.8863965652879	-0.06539733333332859
-763.3657433968777	-0.06231466666666771
-763.8451136720366	-0.022037333333331237
-764.3245073924907	0.062236444444440875
-764.8039245599573	-0.020943999999993444
-765.2833651761582	-0.11946488888888981
-765.7628292428109	0.08088355555555608
-766.2423167616367	-0.13177777777777616
-766.7218277343578	-0.10321955555555178
-767.2013621626955	-0.09565688888889175
-767.6809200483718	-0.110835555555556
-768.160501393104	-0.09553066666666483
-768.6401061986181	-0.013514666666669655
-769.1197344666316	-0.011571555555557198
-769.5993861988703	-0.025927111111118898
-770.0790613970476	-0.06052444444444619
-770.5587600628978	0.01314844444444235
-771.0384821981343	0.03454577777778064
-771.5182278044829	-0.01789155555555933
-771.9979968836655	-0.04617066666666587
-772.4777894374037	-0.01212977777777673
-772.9576054674235	-0.016725333333330733
-773.4374449754467	-0.06940444444444438
-773.9173079631952	-0.1255253333333288
-774.3971944323904	-0.013178666666669111
-774.8771043847628	-0.008805333333334097
-775.3570378220297	-0.05265955555555087
-775.8369947459174	-0.0495857777777807
-776.3169751581473	-0.03101866666666562
-776.7969790604544	-0.08611733333332976
-777.2770064545472	-0.00880711111111547
-777.7570573421606	0.04397155555556108
-778.2371317250161	-0.038099555555551584
-778.7172296048399	0.021711999999994683
-779.1973509833623	-0.049694222222218136
-779.6774958622964	-0.1605795555555556
-780.157664243377	-0.00447822222222587
-780.6378561283256	-0.07386844444444352
-781.1180715188684	-0.07890488888888891
-781.5983104167315	-0.07642311111111162
-782.0785728236451	-0.08207822222222198
-782.5588587413312	-0.18454222222222597
-783.0391681715155	-0.15410311111110786
-783.5195011159286	0.03575466666666519
-783.9998575762921	-0.04748977777777731
-784.480237554341	-0.00762488888889493
-784.9606410517923	-0.15636266666667425
-785.4410680703809	-0.07207111111111267
-785.9215186118329	0.045274666666664416
-786.40199267787	0.03784711111111392
-786.8824902702311	0.05014933333333627
-787.3630113906338	0.018401777777770703
-787.8435560408127	0.001367111111111525
-788.3241242224894	-0.04583644444444669
-788.8047159374032	-0.01814044444445042
-789.2853311872715	-0.0036782222222245765
-789.7659699738286	-0.07837333333333339
-790.2466322988054	-0.03823822222222387
-790.7273181639276	0.035059555555554754
-791.2080275709216	-0.0422968888888944
-791.688760521526	-0.027896888888887285
-792.1695170174628	-0.0002808888888911396
-792.6502970604668	-0.061393777777783626
-793.1311006522637	-0.062289777777776986
-793.6119277945843	0.026572444444447885
-794.092778489163	0.056222222222220605
-794.5736527377261	-0.02876800000000609
-795.0545505420038	-0.039662222222226165
-795.5354719037309	0.0015466666666664726
-796.0164168246334	-0.06463644444444476
-796.4973853064505	-0.07168711111111205
-796.9783773509082	0.018535111111106947
-797.4593929597368	-0.002101333333339426
-797.9404321346666	-0.04336533333333339
-798.4214948774369	-0.10292622222222336
-798.9025811897736	-0.042595555555558856
-799.3836910734115	0.05268266666666831
-799.8648245300809	-0.08480888888889038
-800.3459815615166	-0.054684444444444834
-800.8271621694489	-0.010616888888891682
-801.3083663556126	-0.008511999999997594
-801.7895941217425	-0.10988266666667186
-802.2708454695688	-0.01153244444444782
-802.752120400822	-0.1418008888888855
-803.2334189172411	0.039354666666671013
-803.714741020561	0.004543999999999263
-804.1960867125118	-0.1109742222222202
-804.6774559948284	-0.08115200000000186
-805.1588488692455	-0.10326577777777857
-805.6402653374979	-0.11242311111111324
-806.1217054013158	-0.07652800000000247
-806.6031690624428	-0.10909155555556127
-807.0846563226091	-0.02415466666667069
-807.5661671835452	-0.013950222222225016
-808.0477016469945	-0.06314488888889577
-808.529259714683	-0.06566400000000107
-809.0108413883585	-0.125790222222228
-809.492446669747	-0.04672355555555745
-809.9740755605875	-0.002816000000004553
-810.4557280626192	-0.09043200000000069
-810.9374041775724	-0.051793777777784274
-811.4191039071861	-0.07530666666666447
-811.9008272532038	-0.06745777777777726
-812.3825742173516	-0.08741333333333184
-812.8643448013684	-0.04630222222222073
-813.3461390069976	0.013080888888887582
-813.8279568359742	-0.0857635555555559
-814.3097982900326	-0.06670399999999467
-814.791663370912	-0.035665777777782445
-815.2735520803471	-0.004303999999998875
-815.7554644200815	-0.05925155555556153
-816.2374003918538	-0.014698666666663484
-816.7193599973991	-0.045173333333336306
-817.2013432384564	-0.10101511111111096
-817.6833501167603	-0.12346133333333353
-818.1653806340586	-0.10596088888888415
-818.6474347920818	-0.15604266666667374
-819.1295125925774	-0.0986488888888885
-819.6116140372759	-0.15951111111110852
