-194.58567678570358	5.51511111111111
-195.03763278408286	5.551777777777776
-195.48961024557985	5.644177777777772
-195.9416091717168	5.507155555555558
-196.3936295640333	5.562133333333323
-196.84567142404936	5.729911111111101
-197.2977347533024	5.895999999999994
-197.74981955331899	5.7164444444444396
-198.20192582562348	5.511777777777776
-198.6540535717533	5.631866666666667
-199.10620279323282	5.509422222222226
-199.5583734915973	5.416844444444441
-200.0105656683733	5.791288888888885
-200.46277932508949	5.691200000000002
-200.91501446328328	5.654311111111117
-201.36727108447695	5.678844444444436
-201.81954919021	5.516799999999995
-202.27184878200688	5.353377777777779
-202.72416986139842	5.655200000000001
-203.17651242992207	5.699555555555554
-203.6288764891	5.785422222222228
-204.0812620404762	5.5446666666666635
-204.53366908557277	5.47235555555555
-204.98609762592068	5.750977777777783
-205.4385476630595	5.4265777777777675
-205.8910191985136	5.778488888888888
-206.34351223382254	5.4200444444444456
-206.79602677051503	5.689688888888882
-207.24856281011984	5.68879999999999
-207.7011203541787	5.824977777777781
-208.15369940421377	5.63448888888889
-208.60629996176903	5.832266666666667
-209.058922028371	5.572933333333332
-209.51156560555057	5.6867999999999945
-209.9642306948495	5.685466666666657
-210.41691729779214	5.702933333333332
-210.86962541592243	5.53826666666667
-211.32235505076255	5.636622222222213
-211.77510620385863	5.449911111111101
-212.22787887673718	5.66386666666667
-212.68067307093128	5.768577777777771
-213.13348878798266	5.708577777777771
-213.5863260294157	5.733422222222224
-214.03918479677648	5.73746666666666
-214.4920650915959	5.90826666666667
-214.9449669154005	5.718577777777771
-215.39789026973855	5.889333333333327
-215.85083515613658	5.735422222222227
-216.30380157613635	5.757822222222223
-216.75678953126874	5.726444444444439
-217.20979902306678	5.7330666666666605
-217.6628300530766	5.490399999999992
-218.11588262282254	5.5910666666666575
-218.5689567338507	5.774844444444437
-219.02205238769415	6.093733333333326
-219.47516958588594	5.568711111111107
-219.9283083299656	5.640355555555547
-220.38146862146843	5.7421333333333235
-220.8346504619361	5.576711111111112
-221.28785385290172	5.557155555555558
-221.74107879590048	5.421600000000002
-222.19432529247416	5.626533333333339
-222.64759334415578	5.649111111111108
-223.1008829524893	5.233999999999998
-223.55419411900988	5.624888888888883
-224.00752684524844	5.5634666666666615
-224.46088113275542	5.809422222222226
-224.91425698305733	5.541777777777776
-225.36765439770463	5.931155555555557
-225.82107337822816	5.782177777777768
-226.27451392616317	5.46817777777777
-226.72797604305794	5.700133333333328
-227.18145973044113	5.488666666666662
-227.6349649898632	5.663422222222224
-228.08849182285934	5.613111111111106
-228.54204023096048	5.563244444444434
-228.99561021571915	5.504711111111109
-229.44920177866416	5.496577777777768
-229.90281492134366	5.5582222222222155
-230.35644964529726	5.523377777777779
-230.81010595205586	5.66448888888889
-231.26378384316985	5.863733333333326
-231.71748332017228	5.596977777777776
-232.1712043846136	5.557244444444433
-232.62494703802685	5.751377777777775
-233.0787112819494	5.451022222222212
-233.5324971179339	5.672711111111114
-233.986304547509	5.621022222222212
-234.44013357222732	5.567111111111105
-234.89398419362408	5.494266666666663
-235.34785641323884	5.826488888888885
-235.80175023262203	5.484000000000006
-236.2556656533045	5.77133333333333
-236.7096026768367	5.423155555555551
-237.16356130476035	5.4147111111111
-237.61754153861068	5.520044444444453
-238.0715433799403	5.596799999999995
-238.52556683028004	5.695333333333329
-238.97961189118686	5.617822222222231
-239.43367856419383	5.4385777777777795
-239.88776685084264	5.661733333333331
-240.3418767526859	5.984933333333336
-240.7960082712545	5.815822222222212
-241.25016140810536	5.680133333333329
-241.7043361647715	5.923422222222224
-242.15853254280555	5.900177777777782
-242.61275054374707	5.753422222222224
-243.0669901691356	5.585155555555555
-243.52125142052373	5.945688888888884
-243.9755342994467	5.589333333333327
-244.42983880746144	5.568355555555544
-244.8841649461031	5.488266666666669
-245.33851271691785	5.747822222222231
-245.79288212145389	5.778533333333326
-246.24727316125296	5.561244444444439
-246.70168583786327	5.670444444444438
-247.15612015283094	5.625822222222212
-247.61057610769552	5.636844444444448
-248.06505370400956	5.4624888888888785
-248.51955294331268	5.6599555555555465
-248.97407382715957	5.527733333333324
-249.42861635708982	5.397999999999997
-249.8831805346495	5.650355555555548
-250.33776636138907	5.653333333333333
-250.79237383885018	5.657999999999997
-251.24700296858546	5.437111111111105
-251.7016537521388	5.2739111111111
-252.15632619105412	5.404933333333336
-252.61102028688612	5.695199999999992
-253.06573604117224	5.718133333333325
-253.52047345547157	5.480133333333328
-253.97523253132582	5.3078222222222315
-254.43001327027892	5.3543555555555375
-254.88481567388556	5.679911111111093
-255.33963974368754	5.254622222222226
-255.79448548124174	5.615422222222227
-256.24935288809206	5.229822222222218
-256.7042419657803	5.365999999999993
-257.1591527158676	5.551377777777767
-257.6140851398914	5.635911111111103
-258.0690392394087	5.651733333333331
-258.5240150159676	5.39328888888888
-258.9790124711121	5.606933333333323
-259.43403160639696	5.432266666666676
-259.8890724233682	5.660399999999984
-260.34413492358055	5.5151555555555545
-260.7992191085802	5.405511111111102
-261.254324979913	5.518533333333326
-261.70945253914044	4.927422222222215
-262.16460178779977	5.054488888888898
-262.6197727274523	5.17093333333333
-263.0749653596462	4.903599999999989
-263.5301796859234	5.149466666666655
-263.98541570784704	5.028044444444434
-264.44067342695905	5.123377777777787
-264.89595284481845	4.980088888888891
-265.35125396297354	5.000133333333328
-265.8065767829703	5.464266666666663
-266.26192130636787	5.107466666666668
-266.7172875347123	4.9391111111111075
-267.17267546956265	4.655911111111103
-267.6280851124629	5.0271555555555585
-268.08351646497204	4.75031111111111
-268.53896952864056	4.8803111111111095
-268.9944443050145	5.100044444444437
-269.4499407956594	4.62462222222221
-269.90545900211276	4.496266666666666
-270.3609989259423	4.76164444444444
-270.816560568694	4.773866666666662
-271.2721439319184	4.353822222222225
-271.7277490171745	4.517155555555558
-272.18337582601055	4.347377777777777
-272.63902435998784	4.269733333333328
-273.0946946206546	4.369599999999999
-273.55038660956336	4.133466666666662
-274.0061003282733	4.048488888888889
-274.4618357783347	3.7552444444444295
-274.9175929613046	3.936711111111104
-275.3733718787398	3.905200000000008
-275.8291725321865	3.7555555555555555
-276.28499492320793	3.109244444444436
-276.7408390533547	3.6380888888888876
-277.19670492418584	3.9789777777777795
-277.652592537256	3.446933333333323
-278.1085018941135	3.5207111111111105
-278.56443299632394	3.2163999999999944
-279.0203858454355	3.3753333333333204
-279.4763604430117	3.106399999999994
-279.93235679060496	3.026488888888885
-280.3883748897658	3.488044444444434
-280.8444147420598	3.162711111111114
-281.3004763490374	2.830977777777783
-281.7565597122598	2.9228444444444417
-282.21266483328174	2.756799999999995
-282.6687917136558	2.394977777777773
-283.1249403549498	2.942088888888894
-283.58111075870755	2.1755555555555555
-284.03730292649897	2.4460888888888843
-284.4935168598746	2.1652888888888833
-284.94975256039123	2.7256888888888837
-285.4060100296145	2.291200000000002
-285.86228926909047	2.0857777777777744
-286.31859028038906	2.680133333333328
-286.774913065065	1.9632444444444264
-287.2312576246688	2.5757777777777746
-287.6876239607724	1.603422222222224
-288.14401207492193	2.7556888888888835
-288.6004219686874	2.1160888888888842
-289.05685364362125	2.0275111111111053
-289.5133071012827	2.368044444444434
-289.96978234323507	2.0050222222222107
-290.42627937103094	2.1431555555555515
-290.8827981862381	2.265733333333321
-291.33933879041354	1.9376444444444496
-291.795901185114	1.800444444444438
-292.25248537190305	1.9242222222222092
-292.7090913523375	1.9909777777777828
-293.1657191279852	2.3053333333333206
-293.62236870040084	1.8495555555555458
-294.0790400711413	1.7717333333333307
-294.5357332417766	1.634399999999991
-294.99244821385923	2.0572444444444327
-295.4491849889592	1.4607555555555478
-295.905943568629	2.2254222222222273
-296.36272395443643	1.1959555555555401
-296.8195261479427	1.431777777777768
-297.2763501507027	1.9138666666666622
-297.7331959642883	1.7868444444444322
-298.19006359025224	1.8530222222222072
-298.6469530301644	1.6338222222222247
-299.1038642855839	1.555155555555555
-299.5607973580697	1.4363111111111033
-300.01775224919186	1.5935111111110989
-300.47472896050505	1.830133333333328
-300.9317274935792	1.456266666666666
-301.38874784997563	1.3295555555555458
-301.84579003125333	1.2537333333333178
-302.3028540389823	1.11031111111111
-302.7599398747172	1.4892888888888733
-303.2170475400324	1.1277777777777778
-303.6741770364869	1.4699555555555466
-304.131328365642	1.3770222222222137
-304.5885015290654	1.2790666666666544
-305.0456965283184	1.1933777777777708
-305.5029133649688	1.0515555555555491
-305.96015204058205	1.6559111111111027
-306.41741255671513	1.4782666666666693
-306.87469491494454	0.7771111111111046
-307.3319991168228	0.966044444444447
-307.7893251639263	0.9956444444444463
-308.24667305781423	1.4107111111111104
-308.7040428000499	1.3034666666666614
-309.1614343922076	1.78595555555554
-309.61884783584213	1.6779999999999968
-310.076283132532	0.9474666666666518
-310.5337402838342	1.1979999999999968
-310.9912192913122	0.8107999999999851
-311.4487201565444	0.9691999999999987
-311.90624288108575	1.0847999999999915
-312.36378746651036	1.03133333333333
-312.82135391438175	1.0368888888888856
-313.2789422262655	1.38
-313.73655240373364	1.1438666666666621
-314.19418444834747	1.0812444444444393
-314.6518383616791	1.0034666666666614
-315.10951414529626	1.5016000000000025
-315.5672118007624	0.9464444444444315
-316.0249313296495	0.9637777777777713
-316.4826727335211	1.1351111111111014
-316.94043601395146	0.8123999999999877
-317.39822117250606	1.3432888888888799
-317.8560282107506	0.515288888888883
-318.3138571302593	1.0347555555555543
-318.7717079325934	0.9534666666666615
-319.22958061933156	1.2230222222222074
-319.6874751920349	0.6479111111111059
-320.14539165227353	1.156266666666666
-320.6033300016237	0.3807555555555478
-321.0612902416446	1.1987999999999819
-321.5192723739148	0.8658666666666653
-321.97727639999556	0.7181777777777623
-322.4353023214676	1.068133333333325
-322.89335013989654	0.6626222222222067
-323.35141985684584	0.7103999999999845
-323.809511473894	1.0026666666666602
-324.2676249926068	0.669911111111093
-324.72576041456256	1.0239999999999903
-325.18391774132493	1.1370666666666511
-325.64209697446375	1.0177333333333243
-326.10029811555756	1.23
-326.5585211661699	1.1324888888888784
-327.0167661278793	1.2131555555555518
-327.4750330022557	0.7067555555555575
-327.93332179086246	0.8136888888888805
-328.3916324952848	0.369688888888874
-328.8499651170839	0.7315111111110956
-329.30831965783835	0.8043999999999909
-329.76669611912024	0.6022222222222222
-330.2250945024952	0.7458222222222118
-330.6835148095483	1.1118222222222216
-331.1419570418386	1.0352444444444295
-331.60042120094914	0.8783555555555439
-332.0589072884519	1.2256444444444463
-332.51741530591255	0.8785333333333256
-332.97594525491394	1.199555555555546
-333.4344971370217	1.3658666666666655
-333.89307095381884	1.4801333333333282
-334.35166670687295	0.7615111111110956
-334.8102843977541	0.8530666666666609
-335.2689240280473	0.32933333333332687
-335.72758559931606	0.8006222222222197
-336.1862691131433	0.7495111111111086
-336.644974571101	0.6997333333333275
-337.1037019747592	1.7338666666666622
-337.5624513257008	1.2635999999999896
-338.02122262549136	0.9326666666666602
-338.4800158757182	1.2766666666666666
-338.9388310779491	1.0933333333333333
-339.39766823375606	0.6591555555555452
-339.85652734472643	0.5612888888888766
-340.3154084124214	0.6750222222222105
-340.77431143843046	0.6822666666666596
-341.2332364243257	0.9042666666666628
-341.69218337167484	0.8642666666666627
-342.15115228206736	0.5588444444444354
-342.6101431570688	0.36453333333333526
-343.0691559982643	0.3229333333333327
-343.52819080722816	0.5123999999999878
-343.9872475855324	0.590444444444438
-344.44632633476215	0.4121333333333152
-344.9054270564873	0.9541777777777719
-345.3645497522931	0.8569777777777765
-345.8236944237515	0.2801777777777655
-346.28286107244105	0.24848888888888823
-346.74204969994264	0.45137777777776744
-347.2012603078305	0.3612888888888766
-347.66049289768756	0.8594222222222176
-348.1197474710881	0.33017777777776547
-348.57902402961065	0.5296444444444367
-349.0383225748382	0.8877333333333243
-349.49764310834286	1.0554222222222274
-349.9569856317119	0.5887111111111072
-350.41635014651735	0.4202666666666563
-350.87573665434434	0.6783111111111065
-351.33514515676933	0.6010222222222041
-351.79457565536876	0.35279999999998835
-352.25402815172765	0.8853777777777739
-352.71350264742256	0.7463555555555407
-353.17299914403844	0.4326666666666602
-353.63251764315186	0.8271999999999955
-354.0920581463392	0.7432444444444264
-354.55162065518766	0.30813333333332493
-355.0112051712738	0.4846222222222099
-355.4708116961826	0.7321777777777687
-355.93044023149486	0.5719111111110963
-356.39009077878274	0.80595555555554
-356.84976333964	0.7114666666666583
-357.3094579156387	0.9176444444444496
-357.7691745083682	0.7315555555555491
-358.2289131194051	0.1856444444444464
-358.6886737503279	0.7642666666666628
-359.14845640272824	0.8046666666666634
-359.6082610781803	0.9245333333333353
-360.0680877782715	0.29226666666665957
-360.52793650458244	0.9950222222222106
-360.9878072586919	0.6502666666666563
-361.4477000421891	0.5693777777777803
-361.90761485665286	0.5477777777777778
-362.3675517036703	1.1558222222222119
-362.8275105848223	1.0483111111111065
-363.2874915016873	0.7943111111111163
-363.7474944558571	0.5957777777777745
-364.207519448908	0.7204888888888915
-364.6675664824338	0.5312888888888766
-365.127635558011	1.0712444444444393
-365.58772667722025	0.599466666666655
-366.04783984165755	1.3707555555555477
-366.50797505289506	0.3037777777777713
-366.96813231252645	0.4431111111110982
-367.42831162213474	0.9119111111110962
-367.8885129832984	0.7764444444444315
-368.3487363976114	0.6335111111110988
-368.80898186665	0.9227111111111137
-369.2692493920103	0.801866666666659
-369.7295389752707	0.48595555555554004
-370.1898506180165	1.0024444444444411
-370.650184321837	0.8990666666666544
-371.1105400883131	1.0127999999999884
-371.57091791903844	0.7854666666666485
-372.03131781559597	0.6683999999999974
-372.49173977956656	0.8145333333333352
-372.9521838125461	0.584844444444429
-373.41264991611314	0.4314666666666583
-373.8731380918637	0.8003999999999845
-374.33364834137853	0.42546666666664856
-374.79418066624055	0.8300888888888909
-375.25473506804786	0.9248888888888824
-375.7153115483769	0.8490666666666544
-376.175910108828	0.6901777777777655
-376.63653075097534	0.4304888888888915
-377.0971734764193	0.6415111111110956
-377.55783828674055	0.8655999999999929
-378.0185251835264	1.0719111111110962
-378.4792341683706	1.2560888888888844
-378.93996524285615	0.7122666666666595
-379.40071840857894	0.19471111111110076
-379.8614936671241	0.7291999999999987
-380.32229102007454	0.4609333333333295
-380.7831104690306	0.721200000000002
-381.2439520155708	0.3289333333333262
-381.7048156612955	0.6407555555555478
-382.1657014077876	1.0327999999999884
-382.62660925663437	0.7741333333333185
-383.08753920943604	0.6016888888888773
-383.5484912677691	0.9279999999999967
-384.0094654332361	0.4714222222222209
-384.4704617074219	0.8011111111111111
-384.93148009191395	0.4405333333333288
-385.39252058831033	0.769688888888874
-385.85358319819613	1.4710666666666576
-386.31466792316513	0.6838666666666622
-386.77577476480894	1.0893777777777804
-387.23690372471486	0.0713333333333301
-387.69805480448093	0.7103999999999845
-388.1592280056902	0.6118666666666589
-388.6204233299428	0.7583555555555439
-389.08164077882833	0.7551999999999922
-389.54288035393176	1.1233333333333333
-390.0041420568578	1.122533333333332
-390.4654258891872	0.12719999999999548
-390.9267318525224	1.0216000000000025
-391.38805994845063	0.8612888888888766
-391.84941017856136	0.30724444444443283
-392.3107825444549	0.4696444444444367
-392.7721770477185	0.5433333333333333
-393.23359368995244	0.926933333333323
-393.69503247274616	1.045377777777774
-394.156493397687	0.3710222222222041
-394.6179764663816	0.010444444444437977
-395.0794816804108	0.5088444444444354
-395.54100904138147	0.3083111111111066
-396.00255855087863	0.9415111111110956
-396.46413021049824	0.9006222222222197
-396.9257240218384	0.7217777777777681
-397.3873399864864	0.7418666666666589
-397.84897810604895	0.5428888888888792
-398.3106383821113	0.7006222222222196
-398.7723208162693	0.5056888888888837
-399.23402541012325	0.7879111111111059
-399.6957521652626	0.5792888888888734
-400.15750108328984	0.48359999999998965
-400.61927216579863	0.34555555555555556
-401.08106541437854	0.7355555555555555
-401.5428808306341	0.9551999999999923
-402.00471841615257	0.38684444444443217
-402.46657817254084	0.6071111111111046
-402.92846010139044	0.5366666666666666
-403.39036420429517	0.476266666666666
-403.8522904828575	0.4576444444444496
-404.31423893866685	0.5365777777777597
-404.7762095733278	0.7618222222222216
-405.238202388432	0.36279999999998835
-405.70021738558626	0.7994222222222177
-406.1622545663778	0.6021777777777687
-406.62431393240695	0.8058222222222119
-407.0863954852761	0.8400444444444374
-407.5484992265748	1.1763999999999941
-408.0106251579119	0.34764444444444964
-408.47277328088114	0.39328888888887986
-408.9349435970765	0.5966666666666667
-409.39713610810236	0.9471555555555582
-409.85935081555266	0.9163555555555407
-410.3215877210341	1.3837333333333177
-410.7838468261427	0.37773333333332426
-411.24612813247	0.7054222222222274
-411.70843164162716	0.5675111111111053
-412.17075735520143	1.2536888888888804
-412.63310527480616	1.205066666666664
-413.09547540203505	0.9244444444444444
-413.55786773848195	0.9210222222222041
-414.0202822857579	0.784399999999991
-414.48271904545237	0.8848888888888824
-414.9451780191766	0.7683555555555439
-415.4076592085263	0.7844444444444445
-415.8701626150998	0.4047999999999916
-416.3326882405038	0.35799999999999677
-416.79523608633207	0.9249333333333359
-417.25780615419364	1.106488888888885
-417.7203984456865	0.5666666666666667
-418.18301296240884	1.1497333333333275
-418.6456497059696	0.8551111111111014
-419.1083086779626	0.45475555555555425
-419.5709898799967	0.9421333333333152
-420.03369331367446	1.0707111111111105
-420.4964189805896	0.33799999999999675
-420.9591668823554	1.0128888888888792
-421.4219370205635	0.8317333333333308
-421.88472939682936	0.8650666666666641
-422.34754401274677	0.8368888888888857
-422.8103808699181	1.2961777777777752
-423.27323996995455	1.1336444444444431
-423.7361213144521	0.6301777777777655
-424.19902490501954	1.2844888888888817
-424.6619507432595	0.8759999999999936
-425.12489883077006	0.8694222222222177
-425.58786916916443	0.5083111111111066
-426.05086176003863	0.7826222222222067
-426.51387660500376	0.39213333333331524
-426.97691370566224	0.23657777777775968
-427.43997306361445	0.9261333333333217
-427.9030546804714	0.9075111111111053
-428.3661585578313	0.5937333333333178
-428.8292846973095	1.08297777777777
-429.292433100502	0.5081777777777623
-429.7556037690157	0.7427111111111137
-430.2187967044615	0.6687555555555608
-430.6820119084355	0.8706666666666569
-431.1452493825554	0.9419111111110963
-431.60850912842125	1.0639555555555529
-432.0717911476357	1.4492888888888733
-432.5350954418141	0.7819111111110962
-432.9984220125525	0.6295999999999994
-433.46177086146844	1.133111111111098
-433.92514199015784	0.7923111111111131
-434.38853540023626	1.1013777777777674
-434.85195109331045	0.9115111111110956
-435.3153890709785	0.7456444444444463
-435.7788493348602	0.7024444444444412
-436.24233188655154	0.8230666666666608
-436.7058367276723	0.9995111111111086
-437.16936385982274	0.7771111111111046
-437.6329132846097	0.8993777777777804
-438.0964850036464	0.5276444444444496
-438.56007901853536	0.7233777777777707
-439.02369533089416	0.4385777777777629
-439.4873339423253	0.8089333333333262
-439.95099485443336	0.872533333333332
-440.414678068836	1.2542666666666629
-440.87838358713776	0.8215111111110955
-441.3421114109499	1.232755555555551
-441.80586154188336	1.103511111111099
-442.2696339815386	0.7195999999999994
-442.7334287315375	0.5933333333333334
-443.1972457934826	0.8053777777777739
-443.66108516898703	0.6703111111111099
-444.12494685966203	0.5201777777777655
-444.58883086711216	0.9987555555555607
-445.05273719295514	1.3812888888888766
-445.51666583879336	0.7401777777777655
-445.98061680624875	0.6345777777777726
-446.444590096926	0.6490222222222171
-446.9085857124297	-0.045644444444462556
-447.3726036543862	0.5020444444444405
-447.8366439243913	0.8806666666666569
-448.3007065240715	0.6032444444444264
-448.76479145502907	1.2270666666666512
-449.2288987188752	0.9465333333333386
-449.69302831722763	0.9507555555555478
-450.157180251693	1.109022222222217
-450.62135452389117	0.6993333333333268
-451.08555113543105	0.8922222222222222
-451.54977008791735	0.7899555555555465
-452.0140113829763	0.9287111111111073
-452.47827502221037	0.8387999999999819
-452.94256100724374	0.6471999999999954
-453.4068693396809	0.8307111111111105
-453.8712000211331	0.6319111111110962
-454.33555305322227	0.713955555555553
-454.7999284375574	0.249466666666655
-455.26432617575387	1.1347111111111008
-455.72874626942934	1.1707111111111104
-456.19318872018846	0.6506222222222197
-456.65765352965536	0.7368888888888857
-457.12214069943684	0.7682666666666692
-457.5866502311548	1.0457777777777746
-458.0511821264226	0.8631111111110982
-458.5157363868469	0.9809333333333294
-458.9803130140564	0.9735999999999897
-459.4449120096556	1.5344444444444445
-459.90953337526634	1.0839111111110995
-460.3741771125043	0.9114666666666582
-460.8388432229783	1.217599999999996
-461.3035317083125	0.36608888888888436
-461.7682425701159	0.7487111111111072
-462.2329758100126	0.612533333333332
-462.6977314296115	0.530977777777783
-463.16250943053467	0.5943555555555374
-463.6273098143997	0.9187555555555608
-464.0921325828155	1.4252444444444297
-464.5569777374085	1.2596444444444366
-465.02184527978966	0.7996444444444367
-465.48673521158105	1.0957777777777746
-465.9516475343981	1.3175111111111053
-466.4165822498541	1.0803999999999845
-466.8815393595732	1.6062222222222124
-467.3465188651687	1.416488888888885
-467.81152076826686	1.131422222222221
-468.2765450704789	1.2129333333333328
-468.74159177342017	1.061999999999987
-469.20666087871916	0.9926666666666601
-469.6717523879849	1.5129333333333328
-470.13686630284576	1.080355555555547
-470.60200262491514	1.1616888888888772
-471.0671613558106	1.6324444444444413
-471.53234249715626	1.4241333333333184
-471.9975460505677	1.0586222222222164
-472.46277201766884	1.7855555555555556
-472.9280204000775	1.9316000000000026
-473.39329119940913	1.2666222222222132
-473.85858441729425	1.4523555555555503
-474.3239000553419	1.8151111111111013
-474.78923811518274	1.2101777777777656
-475.25459859843215	1.578355555555544
-475.71998150670566	1.360666666666657
-476.18538684163605	1.6984444444444347
-476.65081460483447	1.4191555555555453
-477.1162647979293	1.42133333333333
-477.58173742254047	1.3727111111111137
-478.0472324802834	1.8944888888888818
-478.51274997278654	1.6934666666666616
-478.9782899016675	1.9348444444444288
-479.44385226855474	1.9335555555555524
-479.90943707506597	1.7123555555555503
-480.37504432282094	1.9945777777777727
-480.8406740134481	1.6100444444444373
-481.30632614856296	2.398711111111107
-481.77200072979826	2.0932000000000053
-482.23769775876957	2.1236888888888803
-482.70341723709873	2.682133333333315
-483.1691591664165	2.738444444444435
-483.63492354833824	2.602444444444441
-484.1007103844946	2.5960888888888842
-484.56651967650765	2.8404888888888915
-485.0323514259949	2.7043111111111164
-485.4982056345892	3.0257777777777743
-485.96408230390824	3.0193777777777804
-486.4299814355826	3.007155555555558
-486.8959030312342	2.9286666666666537
-487.36184709248295	3.5713777777777675
-487.8278136209637	3.56937777777778
-488.2938026182899	3.652755555555551
-488.75981408609636	4.01257777777777
-489.2258480260008	3.676266666666666
-489.691904439636	3.6943555555555374
-490.1579833286262	4.28266666666666
-490.62408469459103	4.471155555555549
-491.09020853916337	4.476088888888884
-491.55635486396307	5.171377777777767
-492.02252367062505	5.391822222222221
-492.4887149607713	6.138088888888888
-492.95492873602154	6.889022222222217
-493.42116499801523	6.510177777777765
-493.8874237483699	6.93062222222222
-494.35370498871833	7.164133333333319
-494.82000872068477	7.324088888888881
-495.28633494589326	8.557999999999996
-495.75268366598095	8.536844444444432
-496.21905488256334	9.19524444444443
-496.68544859727973	10.00937777777778
-497.15186481175425	10.171200000000002
-497.6183035276089	10.209644444444436
-498.08476474648074	10.866755555555557
-498.55124846999183	11.323955555555553
-499.01775469977713	11.336266666666665
-499.48428343746286	14.748533333333326
-499.9508346846732	13.603200000000005
-500.41740844304326	15.513511111111098
-500.88400471419914	16.284888888888883
-501.35062349977375	13.124444444444444
-501.81726480139554	11.50133333333333
-502.2839286206865	11.31217777777777
-502.75061495929026	10.92306666666666
-503.2173238188244	10.585733333333321
-503.68405520092836	9.836888888888886
-504.1508091072283	9.712311111111113
-504.61758553935283	9.040444444444438
-505.08438449893686	8.58328888888888
-505.55120598760664	8.231377777777768
-506.0180500070016	8.299022222222217
-506.48491655874574	7.089599999999999
-506.95180564446764	6.844355555555538
-507.41871726580655	6.63368888888888
-507.88565142438887	6.6043555555555375
-508.3526081218494	5.617288888888886
-508.8195873598211	5.3143555555555375
-509.28658913993024	5.075111111111101
-509.75361346381396	4.270577777777766
-510.2206603331029	3.739244444444436
-510.68772974943204	3.8814222222222208
-511.15482171443193	3.9615555555555493
-511.62193622973336	3.332311111111113
-512.0890732969756	3.4876444444444497
-512.5562329177849	3.4044444444444446
-513.0234150938005	3.409688888888874
-513.4906198266532	2.8507999999999853
-513.9578471179736	2.8775555555555425
-514.4250969694032	2.3019111111110964
-514.8923693825683	2.7869777777777767
-515.359664359108	2.7063555555555405
-515.8269819006576	2.6959111111111027
-516.2943220088432	2.1716888888888772
-516.7616846853108	2.22595555555554
-517.2290699316843	2.50937777777778
-517.6964777496096	1.8964444444444315
-518.163908140711	1.7830666666666608
-518.631361106634	2.093866666666662
-519.0988366490074	2.3165777777777596
-519.566334769466	1.4120444444444407
-520.0338554696514	1.7499555555555466
-520.5013987511918	1.5171999999999954
-520.9689646157333	1.366044444444447
-521.4365530649043	1.5992888888888734
-521.9041641003398	1.223955555555553
-522.3717977236855	1.2991999999999988
-522.8394539365678	1.4617333333333307
-523.3071327406303	1.603422222222224
-523.7748341375102	1.2572444444444328
-524.2425581288381	1.4289777777777797
-524.7103047162577	1.2384888888888883
-525.1780739014017	1.7546666666666635
-525.6458656859161	1.250666666666657
-526.1136800714314	1.491022222222204
-526.5815170595826	1.5852444444444296
-527.0493766520176	1.6718666666666588
-527.5172588503651	1.18266666666666
-527.9851636562729	1.1961777777777751
-528.4530910713738	1.0417777777777681
-528.921041097303	1.0110666666666577
-529.3890137357082	0.8052888888888831
-529.8570089882202	1.1171555555555581
-530.3250268564869	1.5235555555555522
-530.7930673421413	0.7791999999999987
-531.2611304468224	1.0477333333333243
-531.7292161721742	1.159866666666672
-532.1973245198315	0.8639555555555529
-532.6654554914422	1.1688888888888889
-533.1336090886414	0.3666222222222132
-533.601785313064	1.2993777777777804
-534.0699841663625	1.0445333333333353
-534.5382056501651	1.168133333333325
-535.0064497661222	0.6345333333333353
-535.4747165158728	1.1836888888888806
-535.9430059010523	1.0108888888888758
-536.4113179233105	0.9735555555555523
-536.8796525842805	1.462088888888894
-537.3480098856102	0.9874666666666518
-537.8163898289408	1.4589777777777797
-538.2847924159098	0.8094222222222177
-538.7532176481628	1.2165333333333386
-539.2216655273393	1.2490666666666543
-539.6901360550871	1.1049777777777732
-540.1586292330456	0.87595555555554
-540.6271450628542	1.2383111111111065
-541.0956835461608	0.916711111111104
-541.5642446846047	1.1073333333333237
-542.0328284798338	0.631200000000002
-542.5014349334875	0.6775999999999961
-542.9700640472074	0.5213333333333301
-543.4387158226458	1.0438222222222249
-543.9073902614354	0.8534222222222242
-544.3760873652284	0.6316444444444399
-544.8448071356644	0.7782222222222157
-545.3135495743911	0.5512000000000019
-545.7823146830525	0.6487555555555607
-546.2511024632898	0.46577777777777457
-546.7199129167511	0.7378222222222152
-547.1887460450778	0.6500444444444373
-547.6576018499223	1.1459999999999935
-548.1264803329261	0.7433333333333333
-548.5953814957263	0.6636888888888804
-549.0643053399817	0.8890666666666543
-549.5332518673296	0.9763111111111034
-550.0022210794199	0.7131111111110982
-550.4712129778986	0.5168444444444321
-550.9402275644072	0.6397333333333275
-551.4092648405979	0.8575999999999961
-551.8783248081123	0.7163111111111033
-552.3474074686026	0.675288888888883
-552.8165128237125	0.39733333333332366
-553.2856408750857	0.18235555555555039
-553.7547916243768	0.41599999999999354
-554.2239650732248	0.4991999999999987
-554.6931612232867	0.6654222222222274
-555.1623800762037	0.8659111111111027
-555.6316216336218	1.1361333333333217
-556.1008858971953	0.9780888888888876
-556.5701728685659	0.6032888888888799
-557.0394825493881	0.5388888888888889
-557.5088149413075	0.8034666666666614
-557.9781700459702	0.8421777777777687
-558.4475478650304	0.5546666666666634
-558.9169484001297	0.9195999999999993
-559.386371652927	1.2286222222222165
-559.8558176250638	0.9762222222222126
-560.32528631819	0.8032000000000051
-560.7947777339583	0.9779555555555433
-561.2642918740142	0.496933333333323
-561.7338287400167	0.6491999999999987
-562.2033883336073	0.9552444444444296
-562.6729706564339	0.6050222222222106
-563.1425757101575	1.0675111111111053
-563.6122034964175	0.9286222222222164
-564.0818540168725	0.9159111111111027
-564.551527273173	0.5920888888888941
-565.0212232669624	1.371999999999987
-565.4909419999018	1.0372444444444329
-565.9606834736326	0.68297777777777
-566.4304476898159	0.8225777777777694
-566.9002346500974	0.8726222222222066
-567.3700443561296	1.0257777777777746
-567.8398768095669	1.1998666666666717
-568.3097320120551	0.976044444444447
-568.7796099652572	1.1940444444444438
-569.2495106708194	0.8318222222222216
-569.7194341303895	0.8132000000000051
-570.1893803456304	1.182844444444442
-570.659349318184	1.3047111111111007
-571.1293410497154	0.8926222222222067
-571.5993555418705	0.7916000000000026
-572.0693927962996	0.726044444444447
-572.5394528146655	0.7823555555555504
-573.0095355986142	0.6511111111111111
-573.4796411498047	0.7611555555555485
-573.9497694698848	0.8852444444444296
-574.4199205605177	0.9497777777777648
-574.8900944233535	0.7443555555555375
-575.3602910600403	0.8520888888888941
-575.8305104722433	0.6384888888888882
-576.3007526616063	0.7366666666666667
-576.7710176297967	1.0505333333333289
-577.2413053784647	1.3444444444444446
-577.7116159092583	0.4813777777777674
-578.1819492238428	0.5540888888888811
-578.6523053238684	0.8957777777777746
-579.1226842109961	1.2007999999999852
-579.5930858868782	0.903955555555553
-580.0635103531647	1.195599999999993
-580.5339576115255	1.0327999999999884
-581.0044276636041	1.0128444444444418
-581.4749205110681	0.7935111111110988
-581.9454361555678	0.9675555555555426
-582.4159745987595	1.088577777777763
-582.8865358423045	0.8678666666666686
-583.3571198878527	1.0764444444444314
-583.8277267370719	1.2845777777777727
-584.2983563916141	1.3118222222222216
-584.7690088531341	1.0395999999999994
-585.239684123297	1.2602666666666562
-585.710382203751	0.9285777777777628
-586.1811030961655	0.9988888888888889
-586.6518468021932	0.8289333333333262
-587.1226133234903	1.3663999999999943
-587.5934026617203	1.0806222222222197
-588.0642148185354	0.7788888888888889
-588.5350497956055	1.504088888888881
-589.0059075945825	1.2289777777777797
-589.4767882171211	0.9006222222222197
-589.9476916648932	1.2181777777777623
-590.4186179395447	0.9666222222222132
-590.8895670427494	1.2800444444444374
-591.3605389761575	1.4995999999999994
-591.8315337414301	1.4971555555555582
-592.3025513402324	1.3643555555555373
-592.7735917742168	1.064844444444429
-593.2446550450552	1.0943111111111163
-593.7157411543999	1.3877777777777778
-594.1868501039118	0.91595555555554
-594.6579818952584	1.210888888888876
-595.1291365300922	0.8832000000000052
-595.6003140100827	0.9656444444444464
-596.0715143368888	0.46875555555556075
-596.542737512167	1.2765777777777596
-597.0139835375894	0.9537777777777713
-597.4852524148062	0.949466666666655
-597.956544145491	0.9373777777777771
-598.427858731303	0.9583555555555439
-598.8991961738965	1.3895111111111085
-599.3705564749457	0.8293777777777803
-599.8419396361027	0.29342222222222414
-600.3133456590438	1.0533777777777706
-600.7847745454213	1.3195999999999994
-601.2562262969005	0.9689777777777797
-601.7277009151491	1.1632444444444263
-602.1991984018235	0.9664444444444316
-602.6707187585978	1.211777777777768
-603.1422619871244	1.195511111111102
-603.6138280890793	0.8726666666666602
-604.0854170661194	1.1351999999999922
-604.5570289199077	1.0577333333333243
-605.0286636521159	1.2729333333333326
-605.5003212644011	1.0568444444444323
-605.9720017584369	0.7427999999999884
-606.4437051358823	1.36
-606.9154313984005	1.0315111111110955
-607.3871805476632	0.8332888888888799
-607.8589525853293	1.227822222222215
-608.3307475130752	1.1895999999999993
-608.8025653325572	1.4371111111111046
-609.2744060454429	1.1473777777777772
-609.746269653402	0.6776888888888708
-610.2181561580957	0.7816000000000026
-610.6900655611998	1.5890666666666544
-611.1619978643735	0.9548888888888825
-611.6339530692818	1.568133333333325
-612.1059311775989	1.034266666666663
-612.5779321909837	1.2211555555555484
-613.0499561111144	1.0615111111110955
-613.522002939652	1.0053333333333203
-613.9940726782619	0.9267555555555574
-614.4661653286181	0.989022222222217
-614.9382808923816	0.8346222222222099
-615.4104193712285	1.4114666666666582
-615.8825807668243	0.9640444444444438
-616.3547650808298	1.0301777777777654
-616.8269723149278	1.114844444444429
-617.2992024707728	1.1288444444444354
-617.7714555500473	0.7528888888888792
-618.2437315544126	1.1437333333333177
-618.7160304855361	0.679244444444436
-619.1883523450938	0.6179555555555433
-619.660697134749	1.0459111111111028
-620.13306485618	1.2092888888888733
-620.6054555110501	1.3488444444444354
-621.0778691010266	1.2543555555555375
-621.5503056277902	1.1691999999999987
-622.0227650929996	1.126044444444447
-622.4952474983354	1.1365777777777597
-622.9677528454652	1.4242222222222254
-623.4402811360561	1.191200000000002
-623.9128323717847	1.5587555555555608
-624.3854065543161	0.9534222222222242
-624.8580036853288	1.2421333333333313
-625.3306237664923	1.0769777777777765
-625.8032667994721	1.2869333333333393
-626.2759327859509	1.2189333333333263
-626.7486217275895	1.1539111111110996
-627.2213336260706	1.0467999999999948
-627.6940684830619	1.661422222222221
-628.1668263002308	0.9366666666666666
-628.6396070792599	1.5207111111111105
-629.1124108218147	1.1472444444444327
-629.5852375295735	0.7088888888888889
-630.058087204208	1.252533333333332
-630.5309598473858	1.1482666666666692
-631.0038554607918	1.2706222222222197
-631.4767740460869	0.8299111111111092
-631.949715604956	1.2683999999999973
-632.4226801390668	1.2843111111111163
-632.8956676500972	1.1319555555555498
-633.3686781397193	1.1784888888888883
-633.841711609605	1.6404000000000007
-634.3147680614369	1.2424888888888947
-634.7878474968803	1.435511111111102
-635.260949917618	1.2795999999999994
-635.7340753253238	0.8241777777777719
-636.2072237216655	1.2268888888888856
-636.680395108332	0.8155111111111021
-637.1535894869845	1.0352888888888832
-637.6268068593121	1.4645777777777726
-638.1000472269844	0.9104000000000007
-638.5733105916712	1.6150222222222106
-639.0465969550617	1.090755555555564
-639.5199063188232	0.9793777777777803
-639.9932386846386	1.0215111111111117
-640.4665940541819	1.6083111111111066
-640.9399724291247	1.3863111111111195
-641.4133738111522	1.080577777777766
-641.8867982019359	1.2231555555555518
-642.3602456031609	0.7860888888888844
-642.8337160165011	1.4563111111111195
-643.3072094436261	1.1582666666666692
-643.7807258862275	0.9832000000000052
-644.2542653459725	1.4779111111111058
-644.7278278245462	1.0404000000000007
-645.2014133236269	1.4468888888888856
-645.6750218448863	1.5916888888888772
-646.1486533900114	1.596488888888885
-646.6223079606742	1.4205333333333288
-647.0959855585617	0.9761777777777751
-647.5696861853479	1.5133777777777706
-648.0434098427089	1.529022222222217
-648.517156532334	1.5019555555555497
-648.9909262558926	1.1459111111111027
-649.4647190150743	1.3031555555555516
-649.9385348115528	0.9022222222222223
-650.4123736470087	1.0122666666666595
-650.8862355231247	0.6203111111111098
-651.3601204415792	1.0044888888888819
-651.8340284040569	1.1188888888888888
-652.3079594122363	1.3506222222222197
-652.7819134677934	1.0193333333333268
-653.2558905724176	0.6996444444444528
-653.729890727785	1.4399555555555466
-654.2039139355825	1.1363111111111195
-654.6779601974886	0.9907555555555639
-655.1520295151794	1.1718222222222217
-655.6261218903484	0.9432444444444426
-656.1002373246653	5.583955555555553
-656.5743758198258	1.5218222222222215
-657.0485373775061	1.4201333333333281
-657.5227219993824	1.2383999999999975
-657.9969296871503	0.9838222222222248
-658.4711604424795	1.126799999999995
-658.9454142670658	1.4078222222222152
-659.4196911625829	1.291422222222221
-659.8939911307226	1.1851555555555549
-660.3683141731628	0.917688888888887
-660.8426602915866	1.1770222222222138
-661.3170294876829	1.4261333333333217
-661.7914217631302	1.4180444444444502
-662.2658371196176	1.2502666666666724
-662.7402755588298	0.9701333333333282
-663.2147370824455	1.1773777777777772
-663.689221692158	3.3929333333333327
-664.1637293896434	1.7990666666666544
-664.6382601765955	1.4836000000000058
-665.1128140546946	1.566844444444432
-665.5873910256255	1.5054666666666647
-666.0619910910776	1.70133333333333
-666.5366142527313	1.6061777777777753
-667.0112605122779	1.547377777777777
-667.4859298714044	1.4242222222222254
-667.9606223317894	1.7659111111111028
-668.4353378951283	0.9081777777777784
-668.9100765630996	0.7403555555555471
-669.3848383373968	0.6722222222222223
-669.8596232197068	0.8995999999999994
-670.3344312117081	0.9240444444444438
-670.8092623150985	1.2947555555555543
-671.2841165315585	1.1474666666666518
-671.7589938627817	1.1345333333333352
-672.2338943104508	1.3418222222222216
-672.7088178762548	1.1035555555555523
-673.183764561883	1.7544888888888819
-673.6587343690223	1.1889333333333263
-674.1337272993643	0.9028888888888792
-674.608743354596	1.3732444444444425
-675.0837825364019	1.60164444444444
-675.5588448464781	1.1280888888888876
-676.0339302865049	1.4169777777777766
-676.5090388581823	1.583644444444443
-676.9841705631953	1.3827111111111137
-677.4593254032266	1.4753333333333365
-677.9345033799782	1.3539111111110995
-678.4097044951285	1.446711111111104
-678.8849287503776	1.3257777777777746
-679.3601761474104	1.7138666666666622
-679.8354466879138	1.66
-680.3107403735858	1.2848888888888825
-680.786057206111	1.581422222222221
-681.2613971871875	1.3223999999999878
-681.7367603185022	1.585155555555555
-682.2121466017401	1.3366666666666667
-682.6875560386053	1.3916888888888772
-683.1629886307785	1.2121333333333313
-683.6384443799576	1.4422666666666595
-684.113923287836	1.0928888888888793
-684.5894253560965	1.4043111111111164
-685.0649505864411	1.305377777777774
-685.5404989805548	1.0195111111111086
-686.0160705401399	1.4767555555555576
-686.4916652668811	1.2347999999999917
-686.9672831624697	1.5287999999999982
-687.4429242286059	1.4008444444444386
-687.9185884669744	1.3598222222222183
-688.3942758792797	1.2872888888888863
-688.8699864672043	1.597911111111106
-689.3457202324506	1.302755555555551
-689.8214771767098	1.2184888888888883
-690.297257301669	0.9072444444444328
-690.7730606090347	1.231111111111111
-691.2488871004896	1.512622222222223
-691.724736777736	1.606933333333339
-692.200609642465	1.406399999999994
-692.676505696379	1.6775999999999962
-693.1524249411607	1.2063555555555407
-693.6283673785099	1.3812888888888766
-694.1043330101269	1.6119555555555498
-694.5803218376986	1.4755555555555555
-695.0563338629294	1.2869777777777764
-695.5323690875149	1.254844444444445
-696.0084275131466	1.5240888888888973
-696.4845091415157	1.4772444444444328
-696.960613974331	1.7197333333333276
-697.4367420132794	1.7047555555555542
-697.9128932600655	1.633066666666661
-698.3890677163805	1.7732888888888798
-698.86526538392	1.4372444444444328
-699.3414862643842	1.7443999999999908
-699.8177303594688	1.1617333333333308
-700.2939976708781	1.550222222222219
-700.770288200299	1.3689777777777796
-701.246601949436	1.6544888888888818
-701.7229389199848	1.7036000000000058
-702.1992991136455	1.6998666666666717
-702.6756825321179	1.6682222222222158
-703.1520891770979	1.9663111111111196
-703.628519050281	1.8001777777777654
-704.1049721533718	1.5527999999999884
-704.5814484880658	1.619911111111109
-705.0579480560675	1.5523999999999878
-705.5344708590682	1.113600000000006
-706.0110168987721	1.2920444444444406
-706.4875861768753	1.606933333333339
-706.964178695086	1.5228888888888792
-707.440794455096	1.7056444444444463
-707.9174334586095	1.3782222222222158
-708.3940957073221	1.8316000000000026
-708.8707812029381	1.9214666666666582
-709.3474899471622	1.7619555555555497
-709.8242219416854	1.6972444444444328
-710.300977188221	1.6695111111111085
-710.777755688456	1.7722666666666596
-711.2545574441032	2.117599999999996
-711.7313824568585	1.4729777777777862
-712.2082307284262	1.6175555555555587
-712.6851022605063	1.5868888888888857
-713.1619970548032	1.5236888888888804
-713.638915113017	1.2898222222222184
-714.1158564368476	1.9780444444444503
-714.5928210279995	1.602311111111113
-715.0698088881813	1.6662222222222125
-715.5468200190887	1.5130666666666608
-716.0238544224261	1.5591999999999988
-716.5009120998935	1.6285333333333418
-716.977993053204	1.8187111111111072
-717.4550972840533	1.1895999999999993
-717.9322247941457	2.0780888888888875
-718.4093755851854	1.3482222222222158
-718.8865496588771	1.5770222222222139
-719.3637470169251	2.1906666666666568
-719.8409676610379	1.7205333333333288
-720.3182115929113	1.9431555555555518
-720.7954788142584	1.535733333333321
-721.2727693267748	1.9701333333333282
-721.7500831321736	1.895066666666664
-722.2274202321591	1.9963111111111196
-722.7047806284315	1.5863999999999943
-723.1821643226992	1.3965333333333385
-723.6595713166713	1.8446666666666633
-724.1370016120475	1.8181777777777783
-724.6144552105366	1.9268444444444321
-725.0919321138472	1.3951555555555548
-725.5694323236796	2.092488888888895
-726.0469558417466	1.6818222222222217
-726.5245026697527	2.037822222222215
-727.0020728094022	1.825155555555555
-727.4796662624082	1.6979999999999968
-727.9572830304705	2.0380888888888875
-728.4349231152981	1.568355555555544
-728.912586518604	1.6986666666666699
-729.3902732420881	1.6352444444444296
-729.8679832874678	1.7763111111111196
-730.3457166564433	1.8142222222222255
-730.823473350723	2.1403555555555474
-731.3012533720158	2.4725777777777695
-731.7790567220347	1.8031555555555516
-732.2568834024842	1.8431111111111143
-732.7347334150727	1.572755555555551
-733.212606761509	1.9777333333333242
-733.6905034435065	1.7887111111111071
-734.1684234627734	1.7043111111111162
-734.6463668210187	1.9473333333333236
-735.1243335199466	1.8321333333333314
-735.6023235612747	1.9680888888888877
-736.0803369467071	1.9463111111111195
-736.5583736779571	1.5247555555555543
-737.0364337567376	2.013733333333334
-737.5145171847528	1.8458666666666654
-737.992623963716	1.8293777777777804
-738.4707540953402	1.662311111111113
-738.948907581334	2.2411555555555482
-739.4270844234062	2.0149777777777733
-739.9052846232784	1.8390666666666544
-740.3835081826508	2.025911111111103
-740.8617551032362	2.2226222222222227
-741.3400253867522	2.11031111111111
-741.8183190349074	1.8993333333333269
-742.2966360494192	2.2934666666666614
-742.774976431992	2.5271999999999957
-743.2533401843431	2.015288888888883
-743.7317273081812	2.2480444444444503
-744.2101378052195	2.0399555555555464
-744.6885716771794	1.9414222222222208
-745.1670289257655	2.2771111111111044
-745.6455095526909	2.306577777777776
-746.1240135596728	2.127688888888887
-746.6025409484243	1.7927999999999884
-747.0810917206585	1.947911111111106
-747.5596658780928	1.9871999999999954
-748.0382634224356	1.9224444444444413
-748.5168843554004	2.194488888888882
-748.9955286787085	1.7992888888888896
-749.4741963940733	2.1849777777777732
-749.9528875032032	1.9398666666666717
-750.4316020078201	1.7409333333333294
-750.910339909637	2.2257777777777745
-751.3891012103668	2.144533333333335
-751.8678859117314	2.360355555555547
-752.3466940154394	2.047911111111106
-752.8255255232082	2.0408444444444385
-753.3043804367552	1.9429777777777861
-753.7832587577979	1.6782666666666692
-754.2621604880533	1.884177777777772
-754.7410856292348	1.912622222222223
-755.2200341830596	1.9868444444444322
-755.6990061512452	1.8840444444444437
-756.1780015355046	2.1091999999999986
-756.6570203375636	2.073066666666661
-757.1360625591357	2.289644444444453
-757.6151282019335	2.2031111111111144
-758.0942172676833	1.951200000000002
-758.5733297580939	1.8674666666666517
-759.0524656748911	2.070222222222219
-759.5316250197924	2.108533333333342
-760.0108077945107	1.8839999999999903
-760.4900140007636	2.299822222222218
-760.9692436402813	2.2311555555555485
-761.4484967147683	2.18897777777778
-761.927773225955	2.181422222222221
-762.4070731755543	2.4389333333333263
-762.8863965652879	2.212177777777769
-763.3657433968777	1.9474222222222306
-763.8451136720366	2.3010222222222203
-764.3245073924907	1.9991555555555613
-764.8039245599573	1.9943111111111163
-765.2833651761582	2.041200000000002
-765.7628292428109	2.0736888888888805
-766.2423167616367	2.6381777777777784
-766.7218277343578	2.4576444444444494
-767.2013621626955	2.423955555555553
-767.6809200483718	2.3657777777777746
-768.160501393104	2.5159111111111025
-768.6401061986181	2.052088888888894
-769.1197344666316	1.8724888888888946
-769.5993861988703	2.1567555555555575
-770.0790613970476	2.146399999999994
-770.5587600628978	2.0158666666666654
-771.0384821981343	2.115822222222228
-771.5182278044829	2.2826222222222228
-771.9979968836655	2.12102222222222
-772.4777894374037	2.5144444444444445
-772.9576054674235	2.4504444444444378
-773.4374449754467	2.365155555555555
-773.9173079631952	1.8491555555555614
-774.3971944323904	1.9455555555555555
-774.8771043847628	2.096488888888885
-775.3570378220297	2.5398222222222184
-775.8369947459174	2.0941333333333185
-776.3169751581473	2.217022222222214
-776.7969790604544	2.33328888888888
-777.2770064545472	2.3152444444444296
-777.7570573421606	1.8059999999999936
-778.2371317250161	2.187822222222215
-778.7172296048399	1.9871999999999954
-779.1973509833623	2.145377777777774
-779.6774958622964	1.8512444444444394
-780.157664243377	1.9451555555555549
-780.6378561283256	2.361555555555549
-781.1180715188684	1.840755555555564
-781.5983104167315	1.8355999999999928
-782.0785728236451	2.4512444444444395
-782.5588587413312	2.1718666666666753
-783.0391681715155	2.259022222222217
-783.5195011159286	2.2981777777777785
-783.9998575762921	2.163200000000005
-784.480237554341	2.3388444444444354
-784.9606410517923	2.4616000000000025
-785.4410680703809	2.360222222222219
-785.9215186118329	2.407022222222214
-786.40199267787	2.1795999999999993
-786.8824902702311	2.5755555555555554
-787.3630113906338	2.1804000000000006
-787.8435560408127	2.5945777777777725
-788.3241242224894	2.4357777777777745
-788.8047159374032	2.102888888888879
-789.2853311872715	2.199822222222218
-789.7659699738286	2.3579111111111057
-790.2466322988054	2.2663111111111194
-790.7273181639276	2.230577777777766
-791.2080275709216	2.2856444444444466
-791.688760521526	5.202088888888894
-792.1695170174628	6.319333333333327
-792.6502970604668	5.93235555555555
-793.1311006522637	2.2430666666666608
-793.6119277945843	2.339555555555546
-794.092778489163	2.5597333333333276
-794.5736527377261	2.7211555555555482
-795.0545505420038	2.301244444444439
-795.5354719037309	2.479777777777781
-796.0164168246334	2.089777777777781
-796.4973853064505	2.376711111111104
-796.9783773509082	2.174711111111117
-797.4593929597368	2.721511111111112
-797.9404321346666	2.2605777777777663
-798.4214948774369	2.330755555555564
-798.9025811897736	2.1704888888888916
-799.3836910734115	2.37133333333333
-799.8648245300809	2.2539999999999902
-800.3459815615166	2.3891555555555613
-800.8271621694489	2.3959999999999937
-801.3083663556126	2.313200000000005
-801.7895941217425	2.16102222222222
-802.2708454695688	2.6809333333333294
-802.752120400822	2.2782222222222157
-803.2334189172411	2.3100444444444372
-803.714741020561	2.432533333333332
-804.1960867125118	2.4591999999999987
-804.6774559948284	2.62462222222221
-805.1588488692455	2.569777777777781
-805.6402653374979	2.2921777777777685
-806.1217054013158	2.1817333333333306
-806.6031690624428	2.390133333333328
-807.0846563226091	2.0670222222222137
-807.5661671835452	2.3116000000000025
-808.0477016469945	2.453822222222225
-808.529259714683	2.6248888888888824
-809.0108413883585	2.7711555555555485
-809.492446669747	2.8049777777777734
-809.9740755605875	2.502088888888894
-810.4557280626192	2.3147555555555543
-810.9374041775724	2.502311111111113
-811.4191039071861	2.491200000000002
-811.9008272532038	2.220755555555564
-812.3825742173516	2.2310222222222205
-812.8643448013684	2.6452888888888832
-813.3461390069976	2.5771111111111047
-813.8279568359742	2.71164444444444
-814.3097982900326	2.4333777777777708
-814.791663370912	2.4007111111111104
-815.2735520803471	2.8325333333333322
-815.7554644200815	2.545511111111102
-816.2374003918538	2.8212888888888767
-816.7193599973991	2.7056444444444465
-817.2013432384564	2.3860888888888843
-817.6833501167603	2.648577777777763
-818.1653806340586	2.387466666666652
-818.6474347920818	2.4298666666666717
-819.1295125925774	2.4242222222222254
-819.6116140372759	2.9042222222222254
