-194.58567678570358	-1.8634499999999954
-195.03763278408286	-2.254555555555546
-195.48961024557985	-2.0265866666666668
-195.9416091717168	-1.9723444444444451
-196.3936295640333	-1.9690733333333306
-196.84567142404936	-2.011927777777778
-197.2977347533024	-2.0106944444444443
-197.74981955331899	-1.9959977777777789
-198.20192582562348	-2.0981811111111086
-198.6540535717533	-2.1750611111111033
-199.10620279323282	-1.9037677777777815
-199.5583734915973	-1.926575555555545
-200.0105656683733	-1.9497433333333174
-200.46277932508949	-1.9236433333333278
-200.91501446328328	-1.944479999999991
-201.36727108447695	-1.7851322222222128
-201.81954919021	-2.2013400000000063
-202.27184878200688	-2.04007333333334
-202.72416986139842	-2.1143855555555393
-203.17651242992207	-2.0975344444444475
-203.6288764891	-1.9795744444444425
-204.0812620404762	-2.0418288888888814
-204.53366908557277	-2.1011522222222183
-204.98609762592068	-1.8498433333333135
-205.4385476630595	-1.9599822222222025
-205.8910191985136	-1.9043855555555396
-206.34351223382254	-1.9751666666666603
-206.79602677051503	-1.9463266666666539
-207.24856281011984	-2.0379888888888753
-207.7011203541787	-2.170829999999987
-208.15369940421377	-2.054435555555554
-208.60629996176903	-2.1130844444444423
-209.058922028371	-2.0924522222222164
-209.51156560555057	-1.8883222222222118
-209.9642306948495	-2.1290677777777858
-210.41691729779214	-1.9952266666666483
-210.86962541592243	-1.9788522222222107
-211.32235505076255	-2.091929999999993
-211.77510620385863	-2.094084444444452
-212.22787887673718	-1.9657366666666671
-212.68067307093128	-2.034994444444439
-213.13348878798266	-1.9657911111110944
-213.5863260294157	-2.069983333333334
-214.03918479677648	-1.9963455555555507
-214.4920650915959	-1.8854911111111061
-214.9449669154005	-1.8297866666666556
-215.39789026973855	-1.9679666666666646
-215.85083515613658	-1.867318888888872
-216.30380157613635	-2.058928888888897
-216.75678953126874	-2.0760033333333237
-217.20979902306678	-1.994244444444436
-217.6628300530766	-2.0842155555555495
-218.11588262282254	-1.9789877777777696
-218.5689567338507	-2.1375566666666743
-219.02205238769415	-2.091048888888876
-219.47516958588594	-2.0092222222222094
-219.9283083299656	-1.9807544444444325
-220.38146862146843	-2.0807277777777764
-220.8346504619361	-1.8866233333333287
-221.28785385290172	-1.9366433333333246
-221.74107879590048	-1.9876611111110996
-222.19432529247416	-2.067742222222215
-222.64759334415578	-2.118637777777767
-223.1008829524893	-2.162483333333334
-223.55419411900988	-2.0342422222222214
-224.00752684524844	-1.9777311111111098
-224.46088113275542	-2.0102577777777655
-224.91425698305733	-2.041524444444432
-225.36765439770463	-1.950079999999984
-225.82107337822816	-2.123876666666652
-226.27451392616317	-2.1024677777777834
-226.72797604305794	-2.211422222222221
-227.18145973044113	-2.2911399999999977
-227.6349649898632	-1.9941788888888874
-228.08849182285934	-2.0608355555555478
-228.54204023096048	-2.1504722222222092
-228.99561021571915	-2.245583333333327
-229.44920177866416	-2.020527777777768
-229.90281492134366	-1.932609999999986
-230.35644964529726	-1.9796855555555442
-230.81010595205586	-2.057298888888876
-231.26378384316985	-2.2548666666666555
-231.71748332017228	-1.907314444444443
-232.1712043846136	-2.1590933333333266
-232.62494703802685	-1.9238355555555446
-233.0787112819494	-1.806031111111111
-233.5324971179339	-1.9939155555555448
-233.986304547509	-1.8429055555555451
-234.44013357222732	-1.8907155555555397
-234.89398419362408	-1.9606188888888736
-235.34785641323884	-1.9925955555555508
-235.80175023262203	-2.027979999999985
-236.2556656533045	-2.019314444444446
-236.7096026768367	-2.005057777777773
-237.16356130476035	-1.9762111111111071
-237.61754153861068	-1.9658000000000013
-238.0715433799403	-1.9895766666666572
-238.52556683028004	-1.9166355555555492
-238.97961189118686	-1.8068411111111022
-239.43367856419383	-1.9572233333333375
-239.88776685084264	-2.08085888888889
-240.3418767526859	-2.0651744444444353
-240.7960082712545	-2.006933333333323
-241.25016140810536	-1.9406288888888958
-241.7043361647715	-1.9278599999999926
-242.15853254280555	-2.1660066666666697
-242.61275054374707	-1.9457911111110944
-243.0669901691356	-2.0858433333333233
-243.52125142052373	-2.098691111111095
-243.9755342994467	-2.0932588888888777
-244.42983880746144	-2.1115611111111097
-244.8841649461031	-1.7249255555555445
-245.33851271691785	-1.9428988888888692
-245.79288212145389	-1.9164433333333162
-246.24727316125296	-2.1747233333333376
-246.70168583786327	-1.9653922222222253
-247.15612015283094	-1.8710233333333357
-247.61057610769552	-1.9106377777777703
-248.06505370400956	-2.1096599999999874
-248.51955294331268	-2.0161777777777754
-248.97407382715957	-1.8751444444444334
-249.42861635708982	-1.9750255555555567
-249.8831805346495	-1.86836555555555
-250.33776636138907	-1.8670122222222238
-250.79237383885018	-1.936744444444436
-251.24700296858546	-2.0048922222222125
-251.7016537521388	-1.9358544444444286
-252.15632619105412	-1.9796011111111147
-252.61102028688612	-1.882927777777772
-253.06573604117224	-1.791283333333332
-253.52047345547157	-1.8417511111111122
-253.97523253132582	-1.758736666666664
-254.43001327027892	-1.855766666666653
-254.88481567388556	-1.8188488888888807
-255.33963974368754	-1.9095111111111085
-255.79448548124174	-1.8471766666666534
-256.24935288809206	-1.632072222222212
-256.7042419657803	-1.8237655555555345
-257.1591527158676	-1.9769844444444364
-257.6140851398914	-1.7413177777777795
-258.0690392394087	-1.886691111111108
-258.5240150159676	-1.96384666666665
-258.9790124711121	-1.8090933333333266
-259.43403160639696	-1.8414522222222067
-259.8890724233682	-1.661707777777774
-260.34413492358055	-1.8099488888888704
-260.7992191085802	-1.8819355555555375
-261.254324979913	-1.5952733333333324
-261.70945253914044	-1.6937611111111053
-262.16460178779977	-1.8456288888888956
-262.6197727274523	-1.6308977777777667
-263.0749653596462	-1.7065433333333122
-263.5301796859234	-1.663591111111099
-263.98541570784704	-1.6791844444444481
-264.44067342695905	-1.2660611111110969
-264.89595284481845	-1.3326466666666643
-265.35125396297354	-1.1818788888888958
-265.8065767829703	-1.1715233333333324
-266.26192130636787	-1.246903333333337
-266.7172875347123	-0.9801155555555467
-267.17267546956265	-0.8625877777777593
-267.6280851124629	-0.7410266666666495
-268.08351646497204	-0.6422011111111109
-268.53896952864056	-0.8311733333333299
-268.9944443050145	-0.7944222222222177
-269.4499407956594	-0.7211955555555566
-269.90545900211276	-0.8037522222222145
-270.3609989259423	-0.5995899999999933
-270.816560568694	-0.3190533333333345
-271.2721439319184	-0.14565333333332092
-271.7277490171745	-0.03955777777776044
-272.18337582601055	0.061913333333343167
-272.63902435998784	-0.16329777777777055
-273.0946946206546	0.3755600000000009
-273.55038660956336	0.5761866666666821
-274.0061003282733	0.3845066666666793
-274.4618357783347	0.8171988888888962
-274.9175929613046	0.49354888888889237
-275.3733718787398	0.5833966666666675
-275.8291725321865	0.4661455555555747
-276.28499492320793	1.2193577777777844
-276.7408390533547	1.417244444444449
-277.19670492418584	1.2843266666666668
-277.652592537256	1.135112222222233
-278.1085018941135	1.5825355555555627
-278.56443299632394	1.8039944444444458
-279.0203858454355	1.2153255555555613
-279.4763604430117	1.197954444444444
-279.93235679060496	1.2687500000000163
-280.3883748897658	1.397927777777788
-280.8444147420598	1.5811622222222408
-281.3004763490374	1.7396988888888962
-281.7565597122598	2.5775944444444514
-282.21266483328174	2.5399911111111253
-282.6687917136558	2.8744800000000073
-283.1249403549498	2.403527777777781
-283.58111075870755	2.401136666666684
-284.03730292649897	2.372152222222228
-284.4935168598746	2.8757033333333513
-284.94975256039123	2.253730000000004
-285.4060100296145	2.645867777777797
-285.86228926909047	3.3356477777777926
-286.31859028038906	2.4155377777777742
-286.774913065065	3.013158888888898
-287.2312576246688	3.170662222222244
-287.6876239607724	2.676255555555561
-288.14401207492193	3.4172200000000075
-288.6004219686874	2.978773333333358
-289.05685364362125	3.2100100000000062
-289.5133071012827	3.3804455555555695
-289.96978234323507	3.2747122222222322
-290.42627937103094	3.827297777777793
-290.8827981862381	3.5341966666666687
-291.33933879041354	3.078766666666682
-291.795901185114	3.712057777777793
-292.25248537190305	3.464327777777782
-292.7090913523375	3.462294444444447
-293.1657191279852	3.4694944444444586
-293.62236870040084	3.014774444444451
-294.0790400711413	3.2331500000000073
-294.5357332417766	3.1255855555555576
-294.99244821385923	3.57849000000002
-295.4491849889592	2.8838133333333342
-295.905943568629	3.4371133333333352
-296.36272395443643	2.959210000000005
-296.8195261479427	2.925302222222235
-297.2763501507027	3.2852144444444598
-297.7331959642883	3.3975377777777775
-298.19006359025224	3.3827477777777917
-298.6469530301644	3.3087188888888988
-299.1038642855839	3.5981844444444544
-299.5607973580697	3.075803333333347
-300.01775224919186	2.5737677777777974
-300.47472896050505	2.32429444444445
-300.9317274935792	3.241013333333346
-301.38874784997563	3.5640522222222355
-301.84579003125333	3.0965266666666786
-302.3028540389823	3.3716322222222193
-302.7599398747172	2.924462222222242
-303.2170475400324	3.163098888888894
-303.6741770364869	3.1215166666666723
-304.131328365642	2.930496666666667
-304.5885015290654	2.6899577777777774
-305.0456965283184	2.606761111111118
-305.5029133649688	2.964552222222232
-305.96015204058205	2.493832222222231
-306.41741255671513	3.113006666666689
-306.87469491494454	2.9529422222222395
-307.3319991168228	2.804190000000025
-307.7893251639263	2.8875977777777977
-308.24667305781423	2.443087777777788
-308.7040428000499	2.380696666666675
-309.1614343922076	2.854761111111115
-309.61884783584213	3.456671111111112
-310.076283132532	2.6671433333333376
-310.5337402838342	2.5309366666666757
-310.9912192913122	3.1724855555555647
-311.4487201565444	2.997201111111127
-311.90624288108575	2.70490333333335
-312.36378746651036	2.4388577777777876
-312.82135391438175	2.6286322222222225
-313.2789422262655	2.514376666666665
-313.73655240373364	2.915255555555567
-314.19418444834747	2.890588888888904
-314.6518383616791	2.835625555555566
-315.10951414529626	3.6304622222222354
-315.5672118007624	2.65680444444444
-316.0249313296495	2.886087777777785
-316.4826727335211	2.3364033333333403
-316.94043601395146	2.6086422222222287
-317.39822117250606	2.9408677777777967
-317.8560282107506	2.9047133333333477
-318.3138571302593	2.534359999999999
-318.7717079325934	2.2927333333333406
-319.22958061933156	2.596876666666665
-319.6874751920349	2.076883333333341
-320.14539165227353	2.712864444444454
-320.6033300016237	2.8096633333333334
-321.0612902416446	2.6762488888888845
-321.5192723739148	2.654383333333341
-321.97727639999556	1.8265188888889032
-322.4353023214676	2.983620000000018
-322.89335013989654	2.8398844444444693
-323.35141985684584	2.6191511111111323
-323.809511473894	2.8211322222222224
-324.2676249926068	3.123780000000002
-324.72576041456256	2.3679222222222274
-325.18391774132493	1.8960900000000158
-325.64209697446375	2.2085188888888903
-326.10029811555756	1.802665555555561
-326.5585211661699	2.226958888888896
-327.0167661278793	2.134777777777781
-327.4750330022557	2.5832311111111226
-327.93332179086246	2.472152222222228
-328.3916324952848	2.526120000000018
-328.8499651170839	2.1301777777777815
-329.30831965783835	2.552515555555567
-329.76669611912024	2.5034922222222344
-330.2250945024952	2.604412222222244
-330.6835148095483	2.468783333333348
-331.1419570418386	2.6961000000000057
-331.60042120094914	2.296893333333331
-332.0589072884519	2.4161522222222347
-332.51741530591255	2.2332344444444687
-332.97594525491394	2.652874444444444
-333.4344971370217	2.8968677777777905
-333.89307095381884	2.3896799999999994
-334.35166670687295	2.8818377777777884
-334.8102843977541	2.473075555555568
-335.2689240280473	2.019511111111125
-335.72758559931606	2.63600000000001
-336.1862691131433	2.0770300000000055
-336.644974571101	2.3151711111111215
-337.1037019747592	2.576052222222222
-337.5624513257008	1.861418888888891
-338.02122262549136	2.2935733333333497
-338.4800158757182	2.536488888888901
-338.9388310779491	2.560794444444457
-339.39766823375606	1.9531188888888897
-339.85652734472643	2.251542222222229
-340.3154084124214	2.6494777777777925
-340.77431143843046	2.1262644444444514
-341.2332364243257	2.3939444444444478
-341.69218337167484	2.4611255555555624
-342.15115228206736	2.8378633333333387
-342.6101431570688	1.7498822222222226
-343.0691559982643	1.8320033333333494
-343.52819080722816	2.1479088888889075
-343.9872475855324	1.4349655555555525
-344.44632633476215	2.4471488888888984
-344.9054270564873	2.068235555555568
-345.3645497522931	2.320658888888898
-345.8236944237515	2.1409500000000117
-346.28286107244105	1.9279744444444562
-346.74204969994264	2.404120000000015
-347.2012603078305	2.1383233333333433
-347.66049289768756	2.4005322222222296
-348.1197474710881	1.8416800000000026
-348.57902402961065	2.336061111111129
-349.0383225748382	2.4132933333333413
-349.49764310834286	2.171176666666676
-349.9569856317119	1.870603333333339
-350.41635014651735	2.3371166666666814
-350.87573665434434	2.0882211111111166
-351.33514515676933	2.8254355555555635
-351.79457565536876	1.9793222222222377
-352.25402815172765	2.414780000000012
-352.71350264742256	2.3096788888889
-353.17299914403844	2.2720411111111107
-353.63251764315186	2.6638533333333423
-354.0920581463392	1.7142255555555717
-354.55162065518766	1.9465244444444478
-355.0112051712738	2.53123666666668
-355.4708116961826	2.4549444444444575
-355.93044023149486	2.018382222222232
-356.39009077878274	2.5037644444444513
-356.84976333964	2.203395555555568
-357.3094579156387	2.347261111111115
-357.7691745083682	2.2179344444444644
-358.2289131194051	1.902907777777792
-358.6886737503279	2.129904444444449
-359.14845640272824	1.889584444444465
-359.6082610781803	1.7970500000000174
-360.0680877782715	1.857257777777785
-360.52793650458244	1.8845344444444667
-360.9878072586919	1.731143333333344
-361.4477000421891	1.9583877777777767
-361.90761485665286	2.248091111111118
-362.3675517036703	1.5853355555555673
-362.8275105848223	2.2308500000000153
-363.2874915016873	1.7146488888888982
-363.7474944558571	1.6613877777777735
-364.207519448908	2.114980000000004
-364.6675664824338	1.8900833333333462
-365.127635558011	2.0018477777777943
-365.58772667722025	1.7704955555555675
-366.04783984165755	2.041312222222235
-366.50797505289506	1.652436666666682
-366.96813231252645	2.1868477777777944
-367.42831162213474	2.155753333333349
-367.8885129832984	2.012021111111115
-368.3487363976114	1.9276511111111256
-368.80898186665	2.44116333333334
-369.2692493920103	1.9005166666666788
-369.7295389752707	1.7185388888889024
-370.1898506180165	1.482515555555567
-370.650184321837	1.5605877777777883
-371.1105400883131	1.7734633333333476
-371.57091791903844	1.8322366666666736
-372.03131781559597	1.783113333333345
-372.49173977956656	2.0872188888888923
-372.9521838125461	1.7020288888889061
-373.41264991611314	1.6032577777777786
-373.8731380918637	1.86249333333334
-374.33364834137853	2.1887188888888987
-374.79418066624055	1.1450122222222368
-375.25473506804786	1.6839022222222249
-375.7153115483769	1.8572666666666757
-376.175910108828	1.9171877777777748
-376.63653075097534	2.1750744444444554
-377.0971734764193	1.671057777777783
-377.55783828674055	1.9454855555555615
-378.0185251835264	1.497668888888891
-378.4792341683706	1.8328800000000047
-378.93996524285615	1.758792222222239
-379.40071840857894	1.84430444444444
-379.8614936671241	2.1550422222222387
-380.32229102007454	1.9840677777778022
-380.7831104690306	1.6519844444444687
-381.2439520155708	2.0780155555555635
-381.7048156612955	2.280441111111124
-382.1657014077876	1.9577599999999964
-382.62660925663437	2.2032533333333495
-383.08753920943604	1.943846666666666
-383.5484912677691	1.7352800000000086
-384.0094654332361	1.7859066666666896
-384.4704617074219	1.868073333333353
-384.93148009191395	1.6204466666666688
-385.39252058831033	2.4999611111111233
-385.85358319819613	1.7899222222222306
-386.31466792316513	1.810765555555554
-386.77577476480894	2.291843333333333
-387.23690372471486	2.234004444444452
-387.69805480448093	2.1306444444444463
-388.1592280056902	2.183738888888895
-388.6204233299428	1.9324844444444655
-389.08164077882833	2.2583800000000016
-389.54288035393176	1.8347133333333476
-390.0041420568578	1.786720000000011
-390.4654258891872	2.1912011111111336
-390.9267318525224	2.2441233333333446
-391.38805994845063	1.802613333333332
-391.84941017856136	1.8277766666666624
-392.3107825444549	2.078464444444463
-392.7721770477185	1.6291200000000148
-393.23359368995244	1.6410155555555603
-393.69503247274616	2.1038666666666783
-394.156493397687	0.962904444444446
-394.6179764663816	1.4357277777777926
-395.0794816804108	1.8394633333333412
-395.54100904138147	1.809393333333331
-396.00255855087863	1.6925577777777896
-396.46413021049824	1.9932033333333514
-396.9257240218384	1.7786655555555546
-397.3873399864864	1.5340377777777838
-397.84897810604895	1.226534444444454
-398.3106383821113	1.558298888888886
-398.7723208162693	1.8026055555555731
-399.23402541012325	1.762625555555569
-399.6957521652626	2.2392288888889014
-400.15750108328984	2.1519877777777827
-400.61927216579863	1.9565955555555734
-401.08106541437854	1.7052500000000064
-401.5428808306341	2.275974444444453
-402.00471841615257	1.9164611111111136
-402.46657817254084	1.9788777777777835
-402.92846010139044	2.8613055555555587
-403.39036420429517	1.873322222222228
-403.8522904828575	1.55866666666667
-404.31423893866685	1.984378888888912
-404.7762095733278	1.6515666666666706
-405.238202388432	2.0910622222222446
-405.70021738558626	1.4422644444444612
-406.1622545663778	2.0135033333333396
-406.62431393240695	1.693630000000008
-407.0863954852761	1.823218888888902
-407.5484992265748	1.715483333333347
-408.0106251579119	1.8717722222222397
-408.47277328088114	1.6454922222222377
-408.9349435970765	1.898040000000021
-409.39713610810236	2.0451733333333526
-409.85935081555266	2.425168888888891
-410.3215877210341	2.5027277777777797
-410.7838468261427	2.3673955555555746
-411.24612813247	1.938902222222225
-411.70843164162716	2.0312244444444434
-412.17075735520143	1.8434844444444591
-412.63310527480616	1.639031111111124
-413.09547540203505	2.4559066666666896
-413.55786773848195	2.172463333333338
-414.0202822857579	1.861564444444456
-414.48271904545237	1.6143844444444564
-414.9451780191766	1.8958777777777869
-415.4076592085263	1.4148255555555644
-415.8701626150998	1.9715811111111219
-416.3326882405038	1.6002300000000105
-416.79523608633207	2.0590044444444517
-417.25780615419364	2.085215555555559
-417.7203984456865	1.7423533333333519
-418.18301296240884	1.7400011111111315
-418.6456497059696	1.5252144444444597
-419.1083086779626	2.0143277777777824
-419.5709898799967	1.4929988888888976
-420.03369331367446	1.8572877777777872
-420.4964189805896	1.7743122222222316
-420.9591668823554	1.5731844444444545
-421.4219370205635	1.6704633333333347
-421.88472939682936	1.4429966666666667
-422.34754401274677	1.3948122222222445
-422.8103808699181	1.4888233333333563
-423.27323996995455	1.3977244444444497
-423.7361213144521	1.6470200000000155
-424.19902490501954	2.133437777777775
-424.6619507432595	1.7558244444444588
-425.12489883077006	1.4668522222222236
-425.58786916916443	1.6042388888888914
-426.05086176003863	1.837353333333352
-426.51387660500376	1.7500411111111236
-426.97691370566224	1.2637166666666841
-427.43997306361445	1.8514822222222251
-427.9030546804714	1.4884277777777848
-428.3661585578313	1.5398955555555747
-428.8292846973095	1.2756222222222358
-429.292433100502	1.351223333333344
-429.7556037690157	1.9851644444444618
-430.2187967044615	1.5999155555555544
-430.6820119084355	1.7327844444444538
-431.1452493825554	1.5499577777777773
-431.60850912842125	0.9828566666666787
-432.0717911476357	1.13115666666668
-432.5350954418141	1.162446666666672
-432.9984220125525	1.5176033333333423
-433.46177086146844	1.5023111111111132
-433.92514199015784	1.4158266666666735
-434.38853540023626	1.4199344444444675
-434.85195109331045	1.7387344444444655
-435.3153890709785	1.5625933333333362
-435.7788493348602	1.412247777777795
-436.24233188655154	1.331315555555565
-436.7058367276723	1.28413111111112
-437.16936385982274	1.6909600000000016
-437.6329132846097	1.3749122222222407
-438.0964850036464	1.449121111111114
-438.56007901853536	1.8270155555555538
-439.02369533089416	1.1977266666666644
-439.4873339423253	1.348033333333345
-439.95099485443336	1.2009088888889043
-440.414678068836	0.7598977777777893
-440.87838358713776	1.463878888888899
-441.3421114109499	1.0566966666666688
-441.80586154188336	1.4786922222222427
-442.2696339815386	1.7883588888889062
-442.7334287315375	1.0567311111111162
-443.1972457934826	1.3513377777777755
-443.66108516898703	1.4644133333333431
-444.12494685966203	1.2837255555555749
-444.58883086711216	1.0482644444444547
-445.05273719295514	1.1542922222222356
-445.51666583879336	1.345268888888887
-445.98061680624875	1.8035022222222243
-446.444590096926	1.4065533333333506
-446.9085857124297	1.637204444444441
-447.3726036543862	1.5746344444444629
-447.8366439243913	1.3874511111111334
-448.3007065240715	1.3912177777777994
-448.76479145502907	1.7025400000000082
-449.2288987188752	1.4524888888888947
-449.69302831722763	1.5972155555555623
-450.157180251693	1.409488888888898
-450.62135452389117	1.9064644444444598
-451.08555113543105	1.9022544444444551
-451.54977008791735	1.4741788888889036
-452.0140113829763	1.183676666666676
-452.47827502221037	1.067560000000004
-452.94256100724374	1.2828888888888954
-453.4068693396809	1.639956666666678
-453.8712000211331	1.2735766666666637
-454.33555305322227	1.4012600000000062
-454.7999284375574	1.44046444444445
-455.26432617575387	1.4477711111111178
-455.72874626942934	1.787423333333346
-456.19318872018846	1.9784855555555583
-456.65765352965536	1.6528422222222272
-457.12214069943684	1.8464577777777837
-457.5866502311548	1.4429100000000068
-458.0511821264226	1.2722166666666777
-458.5157363868469	1.6482366666666834
-458.9803130140564	1.7184433333333355
-459.4449120096556	1.7380322222222295
-459.90953337526634	2.052000000000003
-460.3741771125043	1.5511611111111254
-460.8388432229783	1.374893333333344
-461.3035317083125	1.7641833333333488
-461.7682425701159	1.655407777777776
-462.2329758100126	1.2564333333333424
-462.6977314296115	1.8569800000000072
-463.16250943053467	2.43030111111112
-463.6273098143997	2.148796666666668
-464.0921325828155	2.059148888888885
-464.5569777374085	2.1043644444444607
-465.02184527978966	1.5189222222222372
-465.48673521158105	2.2577555555555673
-465.9516475343981	2.077412222222241
-466.4165822498541	2.0221288888889024
-466.8815393595732	1.5929788888889016
-467.3465188651687	1.7720377777777807
-467.81152076826686	2.2747233333333536
-468.2765450704789	1.7248622222222427
-468.74159177342017	1.7139077777777856
-469.20666087871916	1.6795700000000136
-469.6717523879849	1.7479666666666809
-470.13686630284576	2.0421522222222284
-470.60200262491514	2.3797088888889024
-471.0671613558106	2.0601133333333324
-471.53234249715626	2.0678200000000166
-471.9975460505677	1.9562777777777876
-472.46277201766884	2.2347455555555644
-472.9280204000775	1.905765555555554
-473.39329119940913	1.8896166666666816
-473.85858441729425	1.8401577777777858
-474.3239000553419	2.3386588888888946
-474.78923811518274	1.6852677777777878
-475.25459859843215	1.942748888888891
-475.71998150670566	2.3291811111111183
-476.18538684163605	2.191017777777791
-476.65081460483447	2.3701966666666783
-477.1162647979293	2.29490333333335
-477.58173742254047	2.4430988888888936
-478.0472324802834	2.6754000000000167
-478.51274997278654	2.6188777777777834
-478.9782899016675	2.68569222222223
-479.44385226855474	2.2644822222222216
-479.90943707506597	2.4986188888889025
-480.37504432282094	2.6301633333333463
-480.8406740134481	2.798193333333329
-481.30632614856296	2.374305555555572
-481.77200072979826	2.3360944444444613
-482.23769775876957	2.6580577777777865
-482.70341723709873	2.9210955555555764
-483.1691591664165	3.244717777777793
-483.63492354833824	3.326648888888885
-484.1007103844946	3.1092255555555717
-484.56651967650765	3.5551966666666783
-485.0323514259949	3.576190000000012
-485.4982056345892	3.7087688888888968
-485.96408230390824	3.69340666666669
-486.4299814355826	3.979671111111109
-486.8959030312342	3.3658311111111185
-487.36184709248295	4.00756666666668
-487.8278136209637	3.6722533333333396
-488.2938026182899	3.7867911111111203
-488.75981408609636	4.372312222222245
-489.2258480260008	4.552765555555557
-489.691904439636	5.420157777777786
-490.1579833286262	5.493535555555557
-490.62408469459103	5.850577777777782
-491.09020853916337	5.905533333333345
-491.55635486396307	5.966832222222227
-492.02252367062505	6.688538888888902
-492.4887149607713	7.038905555555571
-492.95492873602154	7.4743544444444545
-493.42116499801523	7.490166666666676
-493.8874237483699	7.957234444444459
-494.35370498871833	8.396215555555553
-494.82000872068477	8.330834444444465
-495.28633494589326	8.706465555555559
-495.75268366598095	9.218901111111126
-496.21905488256334	9.943278888888907
-496.68544859727973	10.37076333333334
-497.15186481175425	10.750164444444462
-497.6183035276089	10.951783333333346
-498.08476474648074	11.761251111111132
-498.55124846999183	11.784128888888905
-499.01775469977713	11.850786666666682
-499.48428343746286	11.982602222222226
-499.9508346846732	12.314508888888893
-500.41740844304326	11.889808888888899
-500.88400471419914	12.062428888888906
-501.35062349977375	11.978923333333352
-501.81726480139554	11.513805555555559
-502.2839286206865	11.170870000000011
-502.75061495929026	10.170997777777796
-503.2173238188244	10.137203333333341
-503.68405520092836	9.532252222222224
-504.1508091072283	9.30550666666669
-504.61758553935283	8.44695111111112
-505.08438449893686	7.704434444444455
-505.55120598760664	7.6165855555555675
-506.0180500070016	7.520920000000009
-506.48491655874574	7.150647777777793
-506.95180564446764	7.0299911111111095
-507.41871726580655	6.8549755555555745
-507.88565142438887	6.240296666666675
-508.3526081218494	5.978158888888898
-508.8195873598211	5.719917777777802
-509.28658913993024	5.156213333333338
-509.75361346381396	4.875458888888906
-510.2206603331029	4.90327222222223
-510.68772974943204	4.544016666666672
-511.15482171443193	4.172470000000014
-511.62193622973336	3.7927633333333426
-512.0890732969756	3.251965555555556
-512.5562329177849	3.2879055555555614
-513.0234150938005	3.114216666666681
-513.4906198266532	3.015178888888897
-513.9578471179736	3.0901377777777737
-514.4250969694032	2.8582977777777865
-514.8923693825683	3.571364444444464
-515.359664359108	3.071002222222224
-515.8269819006576	2.6663111111111197
-516.2943220088432	2.6185844444444553
-516.7616846853108	2.4410922222222307
-517.2290699316843	2.8748722222222325
-517.6964777496096	2.2258133333333374
-518.163908140711	2.51108000000001
-518.631361106634	1.9497844444444572
-519.0988366490074	1.9968911111111165
-519.566334769466	1.9338100000000042
-520.0338554696514	1.9275177777777976
-520.5013987511918	2.1909788888888984
-520.9689646157333	2.100591111111118
-521.4365530649043	2.079617777777797
-521.9041641003398	2.167440000000012
-522.3717977236855	1.7393144444444624
-522.8394539365678	1.9579055555555613
-523.3071327406303	1.8771466666666674
-523.7748341375102	1.8571688888888942
-524.2425581288381	1.949963333333338
-524.7103047162577	1.6733577777777908
-525.1780739014017	1.773902222222225
-525.6458656859161	1.3231344444444564
-526.1136800714314	1.3535722222222346
-526.5815170595826	1.0948599999999957
-527.0493766520176	1.3678422222222273
-527.5172588503651	1.0344466666666752
-527.9851636562729	1.130506666666689
-528.4530910713738	1.559777777777781
-528.921041097303	1.3384455555555663
-529.3890137357082	1.6474944444444555
-529.8570089882202	1.55944222222223
-530.3250268564869	1.423848888888897
-530.7930673421413	1.1887088888889088
-531.2611304468224	1.4246188888888962
-531.7292161721742	1.1964800000000104
-532.1973245198315	1.2791333333333346
-532.6654554914422	1.0457066666666812
-533.1336090886414	1.0375911111111216
-533.601785313064	1.1941400000000106
-534.0699841663625	1.1592388888888914
-534.5382056501651	1.0224133333333398
-535.0064497661222	0.874956666666678
-535.4747165158728	1.2194800000000072
-535.9430059010523	1.1946777777777848
-536.4113179233105	1.0495022222222339
-536.8796525842805	1.5077544444444517
-537.3480098856102	1.0710055555555704
-537.8163898289408	1.0303255555555613
-538.2847924159098	0.6957933333333414
-538.7532176481628	0.5062411111111093
-539.2216655273393	1.2775566666666904
-539.6901360550871	0.911833333333343
-540.1586292330456	1.0162022222222327
-540.6271450628542	1.2333566666666755
-541.0956835461608	0.7544122222222439
-541.5642446846047	1.0679111111111221
-542.0328284798338	1.439920000000016
-542.5014349334875	1.167692222222233
-542.9700640472074	1.0654555555555594
-543.4387158226458	1.2809888888889045
-543.9073902614354	0.8952455555555773
-544.3760873652284	1.018720000000014
-544.8448071356644	0.9318911111111164
-545.3135495743911	0.9178955555555715
-545.7823146830525	1.05133
-546.2511024632898	1.1022355555555583
-546.7199129167511	0.8954133333333367
-547.1887460450778	1.426096666666676
-547.6576018499223	0.6955388888889057
-548.1264803329261	0.8068155555555616
-548.5953814957263	0.952612222222233
-549.0643053399817	0.8976711111111055
-549.5332518673296	0.807426666666676
-550.0022210794199	1.1742977777777963
-550.4712129778986	1.2179255555555735
-550.9402275644072	1.28849000000002
-551.4092648405979	1.0776477777777957
-551.8783248081123	1.0115577777777798
-552.3474074686026	1.115560000000001
-552.8165128237125	1.01115666666668
-553.2856408750857	1.0678333333333365
-553.7547916243768	1.316260000000006
-554.2239650732248	0.9041277777777901
-554.6931612232867	1.2551933333333323
-555.1623800762037	1.0140244444444477
-555.6316216336218	0.9449344444444675
-556.1008858971953	0.6804777777777862
-556.5701728685659	0.7350166666666822
-557.0394825493881	0.43996555555555256
-557.5088149413075	0.5696811111111311
-557.9781700459702	0.5439311111111278
-558.4475478650304	0.4287277777777894
-558.9169484001297	0.8725511111111296
-559.386371652927	0.922005555555564
-559.8558176250638	1.033703333333348
-560.32528631819	0.6559066666666897
-560.7947777339583	1.2952966666666745
-561.2642918740142	1.0683611111111209
-561.7338287400167	1.1219344444444546
-562.2033883336073	1.1220933333333394
-562.6729706564339	1.004572222222228
-563.1425757101575	0.8122555555555704
-563.6122034964175	1.2286955555555727
-564.0818540168725	0.7028288888889074
-564.551527273173	0.9601311111111297
-565.0212232669624	0.7059100000000035
-565.4909419999018	0.807678888888897
-565.9606834736326	1.0192744444444544
-566.4304476898159	0.49707888888890417
-566.9002346500974	1.0279355555555634
-567.3700443561296	0.676594444444458
-567.8398768095669	0.9262355555555647
-568.3097320120551	1.1018288888888976
-568.7796099652572	0.7161822222222205
-569.2495106708194	0.9386766666666759
-569.7194341303895	0.9056233333333512
-570.1893803456304	1.0527833333333385
-570.659349318184	1.0443588888888997
-571.1293410497154	1.2001344444444597
-571.5993555418705	1.2605844444444585
-572.0693927962996	1.3257200000000173
-572.5394528146655	1.0212066666666781
-573.0095355986142	0.8122822222222263
-573.4796411498047	0.8504666666666809
-573.9497694698848	1.1908744444444568
-574.4199205605177	0.5611955555555728
-574.8900944233535	0.7873988888888885
-575.3602910600403	1.0980022222222274
-575.8305104722433	0.8780888888889038
-576.3007526616063	0.8080733333333531
-576.7710176297967	0.876448888888893
-577.2413053784647	1.10874666666667
-577.7116159092583	1.2958988888888983
-578.1819492238428	0.6153288888889074
-578.6523053238684	1.1946077777777908
-579.1226842109961	1.201900000000007
-579.5930858868782	1.2973522222222205
-580.0635103531647	1.12124333333334
-580.5339576115255	0.6973722222222326
-581.0044276636041	0.5818244444444524
-581.4749205110681	0.3646555555555581
-581.9454361555678	0.7280088888889036
-582.4159745987595	0.9266088888888933
-582.8865358423045	1.0134322222222303
-583.3571198878527	1.0919344444444545
-583.8277267370719	0.8423911111111132
-584.2983563916141	1.0278244444444458
-584.7690088531341	0.8706144444444605
-585.239684123297	1.1997655555555604
-585.710382203751	0.7072055555555724
-586.1811030961655	0.8569533333333513
-586.6518468021932	0.8969033333333533
-587.1226133234903	0.2739877777777858
-587.5934026617203	1.2960011111111251
-588.0642148185354	0.674097777777788
-588.5350497956055	1.326843333333333
-589.0059075945825	1.5090788888889073
-589.4767882171211	1.2562122222222387
-589.9476916648932	1.1637877777777774
-590.4186179395447	0.8822455555555644
-590.8895670427494	1.0411655555555546
-591.3605389761575	0.8732666666666693
-591.8315337414301	0.9751044444444414
-592.3025513402324	0.6884033333333436
-592.7735917742168	0.8122188888888923
-593.2446550450552	0.8502133333333445
-593.7157411543999	0.7484622222222324
-594.1868501039118	0.9743088888889017
-594.6579818952584	0.6589277777777817
-595.1291365300922	0.870162222222231
-595.6003140100827	0.41442333333334924
-596.0715143368888	0.6774622222222387
-596.542737512167	1.0739511111111237
-597.0139835375894	0.6092066666666748
-597.4852524148062	1.0716266666666747
-597.956544145491	0.8166122222222394
-598.427858731303	0.7245933333333394
-598.8991961738965	0.7404644444444501
-599.3705564749457	1.001601111111134
-599.8419396361027	0.42740333333335
-600.3133456590438	0.7519800000000072
-600.7847745454213	0.7854000000000169
-601.2562262969005	0.7538344444444617
-601.7277009151491	1.043391111111123
-602.1991984018235	0.6414944444444457
-602.6707187585978	1.0893688888888897
-603.1422619871244	0.6432388888888979
-603.6138280890793	1.0475533333333442
-604.0854170661194	1.0994744444444464
-604.5570289199077	0.38795888888890556
-605.0286636521159	0.9266944444444541
-605.5003212644011	0.6834688888888922
-605.9720017584369	0.6213366666666762
-606.4437051358823	0.9600944444444516
-606.9154313984005	1.124883333333338
-607.3871805476632	1.17491333333334
-607.8589525853293	1.3101566666666864
-608.3307475130752	1.4865633333333406
-608.8025653325572	0.7233444444444548
-609.2744060454429	0.7987588888889069
-609.746269653402	0.5335633333333438
-610.2181561580957	0.4444211111111185
-610.6900655611998	0.6799955555555708
-611.1619978643735	0.6051988888888931
-611.6339530692818	0.39280555555556523
-612.1059311775989	0.6281800000000092
-612.5779321909837	0.6226244444444536
-613.0499561111144	0.6350944444444515
-613.522002939652	0.6569488888888898
-613.9940726782619	0.700374444444444
-614.4661653286181	0.7978666666666686
-614.9382808923816	0.585162222222231
-615.4104193712285	1.247234444444459
-615.8825807668243	0.4429055555555614
-616.3547650808298	0.6074244444444452
-616.8269723149278	0.9289866666666866
-617.2992024707728	0.7942100000000047
-617.7714555500473	0.7405777777777823
-618.2437315544126	1.2264166666666763
-618.7160304855361	0.6812611111111214
-619.1883523450938	0.6482911111111106
-619.660697134749	0.7407344444444526
-620.13306485618	1.3919500000000051
-620.6054555110501	1.2828577777777779
-621.0778691010266	0.9297677777777911
-621.5503056277902	1.0236422222222286
-622.0227650929996	0.7850244444444575
-622.4952474983354	0.9944022222222217
-622.9677528454652	0.5575177777777975
-623.4402811360561	0.6885955555555766
-623.9128323717847	0.8241977777777841
-624.3854065543161	0.1618822222222257
-624.8580036853288	1.0135388888889025
-625.3306237664923	0.7035900000000159
-625.8032667994721	1.113195555555576
-626.2759327859509	1.0969800000000072
-626.7486217275895	1.12271444444446
-627.2213336260706	1.0421766666666694
-627.6940684830619	0.6479644444444501
-628.1668263002308	1.293725555555575
-628.6396070792599	0.9202333333333405
-629.1124108218147	0.6925433333333382
-629.5852375295735	0.30505000000001425
-630.058087204208	0.6976066666666884
-630.5309598473858	0.6175566666666742
-631.0038554607918	0.704094444444458
-631.4767740460869	0.2537900000000082
-631.949715604956	0.42662555555557546
-632.4226801390668	0.6334877777777729
-632.8956676500972	1.032197777777797
-633.3686781397193	0.8452044444444538
-633.841711609605	1.013845555555567
-634.3147680614369	0.7097511111111251
-634.7878474968803	0.9717955555555656
-635.260949917618	0.7185622222222446
-635.7340753253238	0.44298111111111615
-636.2072237216655	0.6063611111111176
-636.680395108332	1.0637344444444656
-637.1535894869845	0.9860955555555766
-637.6268068593121	0.7575822222222309
-638.1000472269844	0.7623255555555645
-638.5733105916712	0.7741322222222192
-639.0465969550617	0.5466133333333386
-639.5199063188232	0.33068333333333916
-639.9932386846386	0.7481855555555538
-640.4665940541819	0.31701222222224007
-640.9399724291247	0.8684322222222303
-641.4133738111522	0.6375233333333421
-641.8867982019359	0.6125955555555669
-642.3602456031609	0.556180000000006
-642.8337160165011	0.5051677777777918
-643.3072094436261	0.7750111111111214
-643.7807258862275	0.7432344444444526
-644.2542653459725	1.0784122222222343
-644.7278278245462	0.757052222222232
-645.2014133236269	0.7752177777777898
-645.6750218448863	0.7211133333333418
-646.1486533900114	0.29913222222221925
-646.6223079606742	0.27369555555557273
-647.0959855585617	0.14653888888889924
-647.5696861853479	0.28162888888890547
-648.0434098427089	0.15580222222223206
-648.517156532334	0.3798044444444531
-648.9909262558926	0.8029944444444522
-649.4647190150743	0.44066555555555775
-649.9385348115528	0.31652888888890934
-650.4123736470087	0.5700122222222368
-650.8862355231247	0.4098911111111132
-651.3601204415792	0.17605555555556848
-651.8340284040569	0.8192888888888895
-652.3079594122363	0.6242255555555716
-652.7819134677934	0.4528844444444662
-653.2558905724176	1.2515200000000186
-653.729890727785	0.5952744444444478
-654.2039139355825	0.25434000000001916
-654.6779601974886	0.8484977777777951
-655.1520295151794	0.3259555555555562
-655.6261218903484	0.6796833333333456
-656.1002373246653	0.7584044444444428
-656.5743758198258	0.4074655555555526
-657.0485373775061	0.8567455555555676
-657.5227219993824	0.5334777777777829
-657.9969296871503	0.39384444444445155
-658.4711604424795	0.26324222222222793
-658.9454142670658	0.3552533333333526
-659.4196911625829	0.8081644444444586
-659.8939911307226	0.6573777777777933
-660.3683141731628	0.7196422222222383
-660.8426602915866	0.578932222222227
-661.3170294876829	0.4842288888889016
-661.7914217631302	0.6400266666666721
-662.2658371196176	0.4548788888889087
-662.7402755588298	0.35465333333334353
-663.2147370824455	0.5766011111111341
-663.689221692158	0.3569722222222319
-664.1637293896434	0.35412555555557546
-664.6382601765955	0.51913777777778
-665.1128140546946	0.2389599999999983
-665.5873910256255	0.5897666666666758
-666.0619910910776	0.26714222222223827
-666.5366142527313	0.5498377777777852
-667.0112605122779	0.19562777777778037
-667.4859298714044	0.5215855555555673
-667.9606223317894	0.5243211111111062
-668.4353378951283	0.6822711111111049
-668.9100765630996	0.4668844444444565
-669.3848383373968	0.634794444444447
-669.8596232197068	0.38741888888890064
-670.3344312117081	0.6165755555555612
-670.8092623150985	0.5351344444444597
-671.2841165315585	0.08873444444446553
-671.7589938627817	0.4103244444444459
-672.2338943104508	0.26707888888890413
-672.7088178762548	0.46364333333332775
-673.183764561883	0.24868444444446747
-673.6587343690223	0.5502300000000104
-674.1337272993643	0.34315777777778245
-674.608743354596	0.5710666666666738
-675.0837825364019	0.8515633333333406
-675.5588448464781	0.5932511111111186
-676.0339302865049	0.7550266666666721
-676.5090388581823	0.15153333333333852
-676.9841705631953	0.37820888888889587
-677.4593254032266	0.259744444444449
-677.9345033799782	0.5320877777777787
-678.4097044951285	0.6197299999999976
-678.8849287503776	0.48846000000000156
-679.3601761474104	0.17132666666667015
-679.8354466879138	0.7480044444444421
-680.3107403735858	0.6359933333333336
-680.786057206111	0.4291977777777841
-681.2613971871875	0.06614222222222856
-681.7367603185022	0.5747866666666717
-682.2121466017401	0.4205388888888895
-682.6875560386053	0.4461877777777813
-683.1629886307785	0.7185666666666738
-683.6384443799576	0.5897655555555603
-684.113923287836	0.41270666666668454
-684.5894253560965	0.32929000000002107
-685.0649505864411	0.6337622222222369
-685.5404989805548	0.5874611111111234
-686.0160705401399	0.275125555555569
-686.4916652668811	0.2737566666666761
-686.9672831624697	0.4274022222222346
-687.4429242286059	0.36986777777778723
-687.9185884669744	0.30502000000001217
-688.3942758792797	0.2269577777777805
-688.8699864672043	0.4135133333333458
-689.3457202324506	0.18636777777779368
-689.8214771767098	0.598713333333338
-690.297257301669	0.17986222222224266
-690.7730606090347	0.0023533333333519597
-691.2488871004896	0.19480000000000777
-691.724736777736	-0.05266777777777558
-692.200609642465	0.23756666666668025
-692.676505696379	0.5792788888888997
-693.1524249411607	0.2896100000000054
-693.6283673785099	0.15531222222224136
-694.1043330101269	0.21698111111112262
-694.5803218376986	0.4798622222222427
-695.0563338629294	0.2930633333333309
-695.5323690875149	0.41260444444444144
-696.0084275131466	0.3988677777777937
-696.4845091415157	0.4823244444444491
-696.960613974331	0.4824099999999938
-697.4367420132794	0.6150855555555609
-697.9128932600655	0.4315244444444478
-698.3890677163805	0.5943955555555779
-698.86526538392	0.5100722222222248
-699.3414862643842	0.24245000000000194
-699.8177303594688	0.2839766666666643
-700.2939976708781	0.34531666666667055
-700.770288200299	0.42983222222222445
-701.246601949436	0.20181333333333087
-701.7229389199848	0.2258911111111229
-702.1992991136455	0.3470533333333474
-702.6756825321179	0.3951644444444618
-703.1520891770979	0.42676555555556356
-703.628519050281	0.17707000000001344
-704.1049721533718	0.2822311111111291
-704.5814484880658	0.34551777777779435
-705.0579480560675	0.4867755555555697
-705.5344708590682	0.06584555555557017
-706.0110168987721	0.6084022222222282
-706.4875861768753	0.13697888888890802
-706.964178695086	0.23591222222223426
-707.440794455096	0.09826666666666925
-707.9174334586095	0.3450355555555628
-708.3940957073221	0.02724222222223438
-708.8707812029381	0.4276733333333525
-709.3474899471622	0.04243222222222054
-709.8242219416854	0.7032022222222197
-710.300977188221	-0.030446666666652567
-710.777755688456	0.15947777777779265
-711.2545574441032	0.4064700000000044
-711.7313824568585	0.26609888888889044
-712.2082307284262	-0.020564444444446255
-712.6851022605063	0.5812700000000122
-713.1619970548032	0.3463122222222349
-713.638915113017	0.11824222222222791
-714.1158564368476	0.5647088888889024
-714.5928210279995	0.34679222222223566
-715.0698088881813	0.2690688888889013
-715.5468200190887	0.09588444444446294
-716.0238544224261	0.03284333333334265
-716.5009120998935	0.24606333333334382
-716.977993053204	0.12604000000001786
-717.4550972840533	-0.06586333333331923
-717.9322247941457	0.36528111111112394
-718.4093755851854	0.1709255555555703
-718.8865496588771	0.7225366666666782
-719.3637470169251	0.14190999999999704
-719.8409676610379	0.4155311111111304
-720.3182115929113	0.17890444444443954
-720.7954788142584	0.3809333333333456
-721.2727693267748	0.4105966666666791
-721.7500831321736	0.6507866666666814
-722.2274202321591	0.3204566666666748
-722.7047806284315	0.39335888888890624
-723.1821643226992	0.20833666666667947
-723.6595713166713	0.39404444444445996
-724.1370016120475	-0.039213333333318584
-724.6144552105366	0.20447777777779266
-725.0919321138472	0.11234888888889044
-725.5694323236796	0.5232533333333493
-726.0469558417466	0.4754455555555695
-726.5245026697527	-0.14316888888887155
-727.0020728094022	-0.20918111111110194
-727.4796662624082	0.128474444444453
-727.9572830304705	0.027014444444454663
-728.4349231152981	0.12327777777779071
-728.912586518604	0.37724222222223436
-729.3902732420881	0.6013077777777895
-729.8679832874678	0.22269777777779382
-730.3457166564433	0.27383888888889085
-730.823473350723	-0.16317666666664687
-731.3012533720158	0.35010222222222687
-731.7790567220347	0.5249233333333461
-732.2568834024842	0.40872000000001407
-732.7347334150727	0.20051666666667894
-733.212606761509	0.22295222222222946
-733.6905034435065	0.05846555555556228
-734.1684234627734	0.1678133333333406
-734.6463668210187	0.07069222222222986
-735.1243335199466	-0.03125666666665994
-735.6023235612747	-0.43552888888888347
-736.0803369467071	0.005128888888898979
-736.5583736779571	-0.19720111111111086
-737.0364337567376	0.2617533333333429
-737.5145171847528	-0.06317999999999302
-737.992623963716	0.37703888888889603
-738.4707540953402	0.013470000000007632
-738.948907581334	0.22434000000001914
-739.4270844234062	0.18530000000000452
-739.9052846232784	0.12180111111112638
-740.3835081826508	-0.09039333333332454
-740.8617551032362	-0.5128566666666625
-741.3400253867522	-0.2517766666666527
-741.8183190349074	-0.06882222222220864
-742.2966360494192	-0.15423444444444612
-742.774976431992	-0.4428566666666625
-743.2533401843431	0.1239222222222371
-743.7317273081812	-0.2771133333333192
-744.2101378052195	0.07733222222222443
-744.6885716771794	0.16558111111112844
-745.1670289257655	0.04980444444445311
-745.6455095526909	-0.09656888888888514
-746.1240135596728	-0.2063255555555548
-746.6025409484243	-0.3534655555555461
-747.0810917206585	-0.07118222222220437
-747.5596658780928	-0.1997188888888761
-748.0382634224356	0.12207777777778878
-748.5168843554004	-0.11354333333331548
-748.9955286787085	-0.23116111111110918
-749.4741963940733	0.05312888888889575
-749.9528875032032	0.02344555555556629
-750.4316020078201	-0.3417888888888734
-750.910339909637	-0.1861055555555504
-751.3891012103668	-0.1269288888888938
-751.8678859117314	-0.1403511111111018
-752.3466940154394	0.12400444444445181
-752.8255255232082	-0.05337666666665528
-753.3043804367552	-0.27611444444444105
-753.7832587577979	0.16302000000000894
-754.2621604880533	0.07831888888889807
-754.7410856292348	0.11438666666667106
-755.2200341830596	-0.36507555555555476
-755.6990061512452	-0.04275111111110568
-756.1780015355046	0.2655677777777924
-756.6570203375636	0.25611333333334185
-757.1360625591357	0.16873111111111938
-757.6151282019335	0.06262111111110749
-758.0942172676833	-0.1471811111110987
-758.5733297580939	-0.1499188888888845
-759.0524656748911	0.2458533333333455
-759.5316250197924	-0.257168888888878
-760.0108077945107	0.27963444444446295
-760.4900140007636	-0.13543222222220114
-760.9692436402813	-0.421747777777766
-761.4484967147683	-0.27600777777776886
-761.927773225955	-0.1875655555555487
-762.4070731755543	-0.07412111111109779
-762.8863965652879	-0.09563333333332492
-763.3657433968777	-0.05284333333332648
-763.8451136720366	-0.15446444444444044
-764.3245073924907	0.013845555555566939
-764.8039245599573	-0.15291444444443592
-765.2833651761582	0.16091555555556422
-765.7628292428109	0.17376333333333605
-766.2423167616367	-0.21122555555555866
-766.7218277343578	-0.3285011111111089
-767.2013621626955	-0.16629999999999806
-767.6809200483718	-0.07095666666667158
-768.160501393104	-0.010308888888879058
-768.6401061986181	0.045527777777784245
-769.1197344666316	-0.1376011111111115
-769.5993861988703	0.0362022222222327
-770.0790613970476	-0.31171555555553315
-770.5587600628978	-0.4989788888888951
-771.0384821981343	-0.1522633333333296
-771.5182278044829	-0.004813333333327642
-771.9979968836655	-0.26684444444443217
-772.4777894374037	-0.2722922222222163
-772.9576054674235	0.13586666666668154
-773.4374449754467	0.20512222222222287
-773.9173079631952	-0.11253666666666201
-774.3971944323904	-0.22863888888888242
-774.8771043847628	0.17517444444445168
-775.3570378220297	0.38022555555556514
-775.8369947459174	0.23259777777778154
-776.3169751581473	0.07696555555555581
-776.7969790604544	0.052057777777776613
-777.2770064545472	0.004724444444452982
-777.7570573421606	-0.3158099999999912
-778.2371317250161	-0.017302222222206183
-778.7172296048399	-0.210019999999996
-779.1973509833623	-0.03350888888888423
-779.6774958622964	-0.44970222222221007
-780.157664243377	-0.11059555555554754
-780.6378561283256	-0.08512333333333826
-781.1180715188684	-0.13659444444444185
-781.5983104167315	-0.1155444444444341
-782.0785728236451	-0.433073333333337
-782.5588587413312	-0.40105222222220616
-783.0391681715155	-0.17727111111108873
-783.5195011159286	-0.03991555555553835
-783.9998575762921	-0.22572888888889187
-784.480237554341	-0.11101777777777493
-784.9606410517923	-0.03977666666664946
-785.4410680703809	-0.3556922222222137
-785.9215186118329	-0.11537111111109778
-786.40199267787	0.200162222222231
-786.8824902702311	-0.05540555555554521
-787.3630113906338	0.2246288888889022
-787.8435560408127	0.16683555555555762
-788.3241242224894	-0.33573111111110643
-788.8047159374032	0.1493811111111265
-789.2853311872715	-0.15527999999999237
-789.7659699738286	-0.09692999999999302
-790.2466322988054	-0.24460666666665928
-790.7273181639276	-0.23228777777777093
-791.2080275709216	-0.10994555555555659
-791.688760521526	-0.03810444444442207
-792.1695170174628	-0.2899466666666558
-792.6502970604668	0.2998011111111231
-793.1311006522637	-0.2628444444444419
-793.6119277945843	-0.07763222222221278
-794.092778489163	0.030651111111122495
-794.5736527377261	-0.28806666666666086
-795.0545505420038	-0.28921666666666473
-795.5354719037309	0.0872500000000097
-796.0164168246334	-0.06324444444444251
-796.4973853064505	-0.021024444444434874
-796.9783773509082	-0.016676666666656577
-797.4593929597368	0.013013333333332816
-797.9404321346666	0.0086844444444513
-798.4214948774369	-0.02666666666666667
-798.9025811897736	-0.3468188888888754
-799.3836910734115	0.13874222222224084
-799.8648245300809	0.11124888888888462
-800.3459815615166	-0.23275333333333645
-800.8271621694489	-0.15791444444443592
-801.3083663556126	-0.22806333333331472
-801.7895941217425	-0.5497455555555482
-802.2708454695688	-0.2661477777777731
-802.752120400822	-0.34848888888888824
-803.2334189172411	0.007116666666681542
-803.714741020561	-0.18996777777778334
-804.1960867125118	0.029920000000016038
-804.6774559948284	0.01994666666667197
-805.1588488692455	0.16263555555555892
-805.6402653374979	-0.14247888888888863
-806.1217054013158	-0.03124666666665386
-806.6031690624428	0.1161300000000079
-807.0846563226091	-0.3196233333333253
-807.5661671835452	0.13814888888889174
-808.0477016469945	0.11921222222223554
-808.529259714683	-0.5020044444444324
-809.0108413883585	-0.05445666666666511
-809.492446669747	-0.17075777777776238
-809.9740755605875	-0.17094222222222016
-810.4557280626192	-0.31461333333331926
-810.9374041775724	-0.07677222222220735
-811.4191039071861	-0.41448222222220565
-811.9008272532038	-0.30888666666665815
-812.3825742173516	-0.6469822222222057
-812.8643448013684	-0.3855822222222115
-813.3461390069976	-0.1288411111111054
-813.8279568359742	-0.11061111111109817
-814.3097982900326	-0.3828877777777638
-814.791663370912	-0.3363144444444333
-815.2735520803471	-0.16144888888887685
-815.7554644200815	-0.05504333333332195
-816.2374003918538	-0.4637877777777612
-816.7193599973991	-0.5961844444444513
-817.2013432384564	0.11457555555557418
-817.6833501167603	0.0929111111111221
-818.1653806340586	-0.08090777777777274
-818.6474347920818	0.012793333333328417
-819.1295125925774	-0.3913888888888889
-819.6116140372759	-0.1390833333333204
