768.5491804111048	0.10777777777777778
768.1418053541423	0.10222222222222223
767.7344119301292	0.1791111111111079
767.3270001378255	0.23777777777777778
766.919569975984	0.20833333333333334
766.512121443371	0.18655555555555717
766.104654538731	0.19799999999999676
765.6971692608303	0.1837777777777794
765.2896656084283	0.1374444444444412
764.8821435802741	0.1351111111111095
764.4746031751316	0.13944444444444445
764.0670443917518	0.09688888888888565
763.6594672288965	0.14100000000000162
763.2518716853233	0.19688888888888564
762.8442577597809	0.13344444444444284
762.4366254510356	0.13544444444444606
762.0289747578362	0.18299999999999678
761.6213056789402	0.16722222222222222
761.2136182131094	0.09655555555555717
760.8059123590926	0.1461111111111111
760.3981881156518	0.17444444444444446
759.9904454815378	0.13177777777777616
759.5826844555062	0.10066666666666504
759.1749050363206	0.13377777777777938
758.7671072227259	0.13233333333333172
758.359291013486	0.10255555555555879
757.9514564073496	0.15611111111111112
757.5436034030721	0.17788888888888726
757.1357319994177	0.13155555555555717
756.7278421951283	0.12322222222222384
756.3199339889704	0.15188888888888566
755.9120073796885	0.1626666666666683
755.5040623660421	0.1539999999999984
755.096098946789	0.16644444444444767
754.6881171206754	0.13055555555555556
754.2801168864657	0.1525555555555588
753.8720982429043	0.1701111111111095
753.4640611887509	0.11444444444444445
753.0560057227563	0.06555555555555556
752.6479318436759	0.17600000000000163
752.2398395502653	0.11611111111111111
751.831728841273	0.1387777777777794
751.4235997154589	0.11766666666666828
751.0154521715696	0.17044444444444606
750.6072862083624	0.16
750.1991018245931	0.14688888888888565
749.7908990190057	0.17444444444444446
749.3826777903645	0.23033333333333655
748.9744381374117	0.19422222222222546
748.5661800589027	0.16788888888888728
748.1579035535971	0.17222222222222222
747.7496086202395	0.19877777777777939
747.3412952575874	0.1811111111111111
746.9329634643873	0.1811111111111111
746.5246132393926	0.13
746.1162445813628	0.12977777777778102
745.7078574890403	0.11377777777777939
745.2994519611847	0.12844444444444283
744.8910279965384	0.15077777777777454
744.4825855938589	0.12333333333333334
744.0741247518993	0.12033333333333657
743.6656454694064	0.14344444444444282
743.2571477451354	0.17555555555555555
742.848631577833	0.17533333333333656
742.4400969662523	0.16200000000000322
742.0315439091466	0.12855555555555231
741.6229724052625	0.1688888888888889
741.2143824533555	0.15077777777777454
740.8057740521698	0.10833333333333334
740.3971472004587	0.19655555555555718
739.9885018969776	0.13566666666666505
739.5798381404666	0.17655555555555716
739.1711559296853	0.144777777777781
738.7624552633761	0.10966666666666343
738.3537361402944	0.09955555555555394
737.9449985591888	0.21288888888888727
737.5362425188041	0.17355555555555233
737.1274680178976	0.20544444444444607
736.7186750552117	0.11677777777777616
736.3098636294974	0.13377777777777938
735.90103373951	0.1324444444444412
735.4921853839897	0.14799999999999677
735.0833185616918	0.15799999999999675
734.6744332713587	0.14677777777777615
734.2655295117456	0.12577777777777455
733.8566072815993	0.16799999999999676
733.4476665796664	0.14700000000000324
733.0387074046979	0.13644444444444767
732.6297297554382	0.17844444444444282
732.2207336306385	0.12200000000000323
731.8117190290474	0.13899999999999837
731.4026859494096	0.15777777777777777
730.9936343904782	0.14433333333333495
730.5845643509933	0.17288888888888726
730.175475829706	0.08444444444444445
729.7663688253693	0.18244444444444122
729.3572433367214	0.14522222222221898
728.9480993625175	0.10611111111111111
728.5389369014977	0.12811111111111434
728.129755952411	0.13566666666666505
727.7205565140105	0.10711111111111273
727.3113385850342	0.11411111111110787
726.9021021642374	0.1101111111111095
726.4928472503558	0.16566666666666505
726.0835738421472	0.12744444444444122
725.6742819383494	0.1098888888888905
725.2649715377112	0.15455555555555395
724.8556426389815	0.17677777777777617
724.4462952409026	0.1451111111111095
724.0369293422256	0.13788888888888728
723.6275449416883	0.1388888888888889
723.2181420380396	0.15288888888888727
722.8087206300328	0.1358888888888921
722.3992807163992	0.12466666666666343
721.9898222958986	0.1535555555555523
721.5803453672625	0.11588888888889212
721.1708499292439	0.14799999999999677
720.7613359805896	0.13700000000000323
720.3518035200398	0.1958888888888921
719.9422525463409	0.16311111111111434
719.5326830582355	0.1351111111111095
719.1230950544702	0.165
718.7134885337939	0.14233333333333173
718.3038634949401	0.1787777777777794
717.8942199366641	0.17844444444444282
717.4845578576997	0.19288888888888728
717.0748772567979	0.20444444444444446
716.6651781327031	0.15711111111111273
716.2554604841532	0.1589999999999984
715.8457243098995	0.10111111111111111
715.4359696086776	0.11377777777777939
715.0261963792342	0.15577777777777455
714.616404620316	0.1475555555555588
714.2065943306587	0.19944444444444445
713.7967655090134	0.19433333333333494
713.386918154116	0.16399999999999837
712.977052264713	0.2163333333333301
712.5671678395512	0.13922222222222547
712.157264877362	0.15322222222222384
711.7473433769006	0.19055555555555556
711.3374033368989	0.15155555555555716
710.9274447561031	0.18411111111110787
710.5174676332601	0.14466666666666345
710.1074719671014	0.17311111111111435
709.6974577563823	0.18488888888889052
709.2874249998299	0.20177777777777617
708.8773736961951	0.1658888888888921
708.4673038442228	0.24688888888888566
708.057215442644	0.1851111111111095
707.6471084902078	0.14711111111111272
707.2369829856499	0.16788888888888728
706.8268389277149	0.19466666666666343
706.4166763151472	0.1398888888888905
706.0064951466805	0.14766666666666828
705.5962954210615	0.1798888888888905
705.1860771370237	0.13344444444444284
704.775840293314	0.14533333333333656
704.3655848886724	0.16333333333333333
703.9553109218369	0.19288888888888728
703.5450183915499	0.17944444444444443
703.134707296547	0.20588888888889212
702.7243776355753	0.17200000000000323
702.3140294073658	0.15033333333333657
701.9036626106632	0.22822222222222385
701.4932772442121	0.22566666666666504
701.0828733067416	0.23211111111111274
700.6724507970007	0.24466666666666342
700.2620097137208	0.1912222222222206
699.8515500556443	0.2387777777777794
699.4410718215134	0.245
699.0305750100598	0.24533333333333657
698.6200596200321	0.24388888888888888
698.2095256501597	0.2173333333333317
697.7989730991849	0.22055555555555556
697.3884019658501	0.19555555555555557
696.9778122488846	0.2088888888888889
696.5672039470371	0.24588888888889213
696.1565770590371	0.22211111111111273
695.7459315836269	0.23655555555555718
695.3352675195465	0.25166666666666665
694.9245848655254	0.15955555555555395
694.5138836203122	0.23855555555555233
694.1031637826343	0.19944444444444445
693.692425351234	0.22899999999999837
693.2816683248534	0.2644444444444444
692.8708927022199	0.22311111111111434
692.46009848208	0.22466666666666343
692.0492856631608	0.25688888888888567
691.6384542442048	0.20833333333333334
691.2276042239542	0.23277777777777778
690.8167356011342	0.214777777777781
690.4058483744911	0.2811111111111111
689.9949425427545	0.18655555555555717
689.5840181046623	0.2648888888888905
689.1730750589568	0.31233333333333174
688.7621134043652	0.25922222222222546
688.3511331396297	0.31466666666666343
687.940134263482	0.27
687.5291167746599	0.28988888888889053
687.1180806719015	0.25766666666666826
686.707025953936	0.22233333333333172
686.2959526195058	0.24311111111111436
685.8848606673403	0.22755555555555879
685.4737500961751	0.1913333333333301
685.0626209047527	0.23966666666666342
684.651473091798	0.2563333333333301
684.2403066560556	0.2575555555555588
683.8291215962504	0.30422222222222545
683.4179179111203	0.24299999999999677
683.0066955994079	0.25555555555555554
682.5954546598334	0.22088888888889213
682.1841950911439	0.18911111111110787
681.7729168920664	0.3010000000000016
681.3616200613344	0.31333333333333335
680.9503045976883	0.30666666666666664
680.5389704998529	0.3085555555555523
680.1276177665706	0.325
679.7162463965662	0.2767777777777762
679.3048563885802	0.310222222222219
678.893447741346	0.2758888888888921
678.4820204535908	0.2867777777777762
678.0705745240549	0.32922222222222547
677.659109951463	0.33644444444444765
677.2476267345577	0.2857777777777745
676.8361248720615	0.38155555555555715
676.4246043627128	0.30933333333333496
676.013065205247	0.2964444444444477
675.6015073983895	0.2937777777777794
675.18993094088	0.34055555555555556
674.7783358314439	0.32566666666666505
674.3667220688145	0.3523333333333317
673.95508965173	0.27411111111110786
673.5434385789132	0.30311111111111433
673.1317688491064	0.2801111111111095
672.7200804610279	0.24044444444444607
672.3083734134182	0.3138888888888889
671.8966477050107	0.3655555555555556
671.4849033345282	0.315
671.0731403007111	0.29288888888888726
670.6613586022797	0.3128888888888873
670.2495582379745	0.3339999999999984
669.8377392065245	0.31077777777777454
669.4259015066549	0.25522222222221896
669.0140451371036	0.23211111111111274
668.6021700965935	0.31677777777777616
668.1902763838601	0.30777777777777776
667.7783639976353	0.33611111111111114
667.3664329366418	0.28399999999999836
666.9544831996196	0.2787777777777794
666.5425147852873	0.3128888888888873
666.1305276923807	0.32200000000000323
665.7185219196356	0.3175555555555588
665.3064974657683	0.25766666666666826
664.8944543295212	0.24655555555555717
664.4823925096126	0.30722222222222223
664.0703120047763	0.31766666666666826
663.6582128137437	0.2975555555555588
663.24609493524	0.3314444444444477
662.8339583679985	0.2498888888888905
662.4218031107423	0.31566666666666504
662.0096291622027	0.2863333333333301
661.5974365211113	0.3114444444444477
661.1852251861908	0.22455555555555393
660.7729951561749	0.31266666666666826
660.3607464297864	0.3211111111111111
659.9484790057548	0.24455555555555394
659.5361928828136	0.2774444444444412
659.1238880596833	0.30566666666666503
658.7115645350955	0.26677777777777617
658.2992223077753	0.25422222222222546
657.8868613764497	0.330222222222219
657.4744817398523	0.27555555555555555
657.062083396704	0.20466666666666344
656.649666345736	0.2985555555555523
656.2372305856691	0.26577777777777456
655.8247761152347	0.30288888888888726
655.4123029331622	0.33255555555555877
654.9998110381722	0.2801111111111095
654.5873004289984	0.28811111111111437
654.174771104357	0.3334444444444428
653.7622230629861	0.35
653.3496563036018	0.3523333333333317
652.9370708249337	0.3337777777777794
652.5244666257131	0.30788888888888727
652.1118437046564	0.34444444444444444
651.6992020604994	0.2951111111111095
651.2865416919583	0.31177777777777615
650.8738625977625	0.3433333333333333
650.4611647766413	0.3121111111111127
650.048448227311	0.3462222222222206
649.6357129485075	0.2801111111111095
649.222958938947	0.38766666666666827
648.8101861973566	0.305222222222219
648.3973947224658	0.2608888888888921
647.984584512993	0.3665555555555572
647.5717555676696	0.33544444444444604
647.158907885212	0.3203333333333366
646.7460414643473	0.3698888888888905
646.3331563038048	0.3761111111111111
645.9202524023008	0.3461111111111111
645.5073297585668	0.32700000000000323
645.0943883713213	0.3664444444444477
644.6814282392871	0.3958888888888921
644.2684493611957	0.3943333333333349
643.8554517357634	0.3375555555555588
643.4424353617173	0.33944444444444444
643.0294002377759	0.2861111111111111
642.6163463626642	0.36777777777777776
642.2032737351115	0.3839999999999984
641.7901823538318	0.37733333333333174
641.3770722175568	0.35677777777777614
640.9639433250006	0.4479999999999968
640.5507956748881	0.4008888888888921
640.1376292659486	0.3804444444444461
639.7244440968942	0.37711111111111273
639.3112401664562	0.3762222222222206
638.8980174733489	0.3576666666666683
638.4847760162971	0.42277777777777775
638.0715157940282	0.4765555555555572
637.6582368052561	0.4441111111111079
637.244939048708	0.4112222222222206
636.8316225231004	0.4479999999999968
636.418287227158	0.37922222222222546
636.0049331596038	0.47788888888888725
635.5915603191539	0.4478888888888873
635.1781687045379	0.4445555555555539
634.7647583144653	0.43766666666666826
634.3513291476636	0.44177777777777616
633.9378812028574	0.48200000000000326
633.5244144787567	0.4637777777777794
633.1109289740931	0.48333333333333334
632.6974246875783	0.519777777777781
632.2839016179374	0.5496666666666634
631.8703597638911	0.47044444444444605
631.4567991241556	0.5222222222222223
631.0432196974559	0.4896666666666634
630.629621482504	0.46544444444444605
630.216004478025	0.4584444444444428
629.8023686827437	0.43833333333333335
629.3887140953677	0.4514444444444477
628.9750407146265	0.44966666666666344
628.5613485392319	0.41033333333333655
628.147637567909	0.4995555555555539
627.7339077993718	0.4875555555555588
627.3201592323411	0.4196666666666634
626.9063918655396	0.4260000000000016
626.4926056976793	0.43777777777777777
626.0788007274851	0.41955555555555396
625.6649769536692	0.41922222222222544
625.251134374952	0.45055555555555554
624.8372729900542	0.3886666666666699
624.4233927976921	0.5142222222222255
624.0094937965844	0.4586666666666699
623.5955759854471	0.4512222222222206
623.1816393629965	0.4460000000000016
622.7676839279578	0.47399999999999837
622.3537096790408	0.46188888888888563
621.939716614968	0.45222222222222225
621.5257047344518	0.4445555555555539
621.1116740362103	0.4161111111111111
620.6976245189643	0.42288888888888726
620.2835561814256	0.4365555555555572
619.8694690223195	0.4329999999999968
619.4553630403514	0.3888888888888889
619.0412382342416	0.3878888888888873
618.6270946027155	0.3710000000000016
618.2129321444761	0.36922222222222545
617.7987508582486	0.38655555555555715
617.3845507427448	0.4375555555555588
616.9703317966788	0.42433333333333495
616.5560940187758	0.4146666666666634
616.1418374077409	0.425222222222219
615.7275619622974	0.3581111111111143
615.3132676811547	0.41455555555555396
614.8989545630293	0.365222222222219
614.4846226066439	0.3829999999999968
614.0702718107042	0.33666666666666667
613.6559021739305	0.41299999999999676
613.2415136950349	0.375222222222219
612.8271063727316	0.4098888888888905
612.4126802057413	0.3338888888888889
611.9982351927714	0.3088888888888889
611.5837713325427	0.3328888888888873
611.1692886237629	0.39700000000000324
610.7547870651481	0.3114444444444477
610.3402666554169	0.3814444444444477
609.9257273932792	0.3691111111111079
609.5111692774511	0.3011111111111111
609.0965923066425	0.3096666666666634
608.6819964795696	0.33044444444444604
608.267381794949	0.24711111111111272
607.852748251488	0.3165555555555572
607.4380958479052	0.289777777777781
607.0234245829083	0.32311111111111435
606.6087344552135	0.30666666666666664
606.1940254635371	0.3698888888888905
605.7792976065847	0.3104444444444461
605.3645508830767	0.3258888888888921
604.9497852917189	0.2663333333333301
604.5350008312295	0.2689999999999984
604.1201975003139	0.23411111111110788
603.7053752976888	0.2511111111111111
603.2905342220679	0.25966666666666344
602.875674272159	0.2477777777777778
602.4607954466808	0.21688888888888566
602.045897744334	0.2653333333333366
601.6309811638374	0.294777777777781
601.2160457039072	0.25966666666666344
600.8010913632422	0.2687777777777794
600.3861181405678	0.23600000000000163
599.9711260345824	0.3051111111111095
599.5561150440028	0.2588888888888889
599.1410851675449	0.25233333333333174
598.7260364039103	0.2623333333333317
598.310968751817	0.2635555555555523
597.8958822099685	0.24644444444444769
597.4807767770811	0.24544444444444607
597.0656524518646	0.29177777777777614
596.6505092330244	0.26822222222222386
596.2353471192791	0.22977777777778102
595.8201661093298	0.26822222222222386
595.4049662018905	0.3591111111111079
594.9897473956734	0.29944444444444446
594.5745096893836	0.30233333333333173
594.1592530817335	0.2964444444444477
593.7439775714304	0.30433333333333495
593.328683157182	0.2351111111111095
592.9133698377069	0.30444444444444446
592.4980376117019	0.29977777777778103
592.0826864778852	0.29922222222222544
591.6673164349583	0.2564444444444477
591.2519274816328	0.2561111111111111
590.8365196166231	0.2634444444444428
590.4210928386259	0.23655555555555718
590.0056471463619	0.23344444444444282
589.5901825385299	0.25822222222222385
589.1746990138421	0.21888888888888888
588.7591965710102	0.29888888888888887
588.3436752087334	0.2425555555555588
587.9281349257278	0.23
587.5125757206926	0.2561111111111111
587.0969975923396	0.23833333333333334
586.6814005393828	0.22166666666666668
586.2657845605171	0.2461111111111111
585.8501496544609	0.22799999999999676
585.4344958199108	0.20844444444444282
585.0188230555813	0.19277777777777777
584.6031313601796	0.15833333333333333
584.1874207324072	0.17655555555555716
583.7716911709758	0.23155555555555718
583.3559426745845	0.23433333333333495
582.9401752419452	0.22233333333333172
582.5243888717699	0.14944444444444444
582.108583562751	0.20666666666666667
581.6927593136072	0.20644444444444768
581.276916123035	0.19977777777778102
580.8610539897443	0.2311111111111111
580.4451729124428	0.235
580.0292728898315	0.2489999999999984
579.6133539206203	0.16799999999999676
579.1974160035103	0.2236666666666699
578.7814591372113	0.24100000000000163
578.3654833204223	0.19911111111110788
577.9494885518508	0.20266666666666827
577.5334748302067	0.21088888888889212
577.1174421541846	0.2560000000000016
576.7013905225008	0.18533333333333657
576.28531993385	0.2363333333333301
575.8692303869396	0.23844444444444282
575.4531218804776	0.24744444444444122
575.0369944131626	0.20144444444444767
574.6208479837046	0.2163333333333301
574.2046825907981	0.20455555555555394
573.7884982331552	0.2514444444444477
573.3722949094791	0.27077777777777456
572.9560726184689	0.19466666666666343
572.539831358832	0.26166666666666666
572.1235711292675	0.25233333333333174
571.7072919284808	0.25222222222222224
571.2909937551797	0.2863333333333301
570.8746766080585	0.22299999999999676
570.4583404858273	0.245
570.0419853871806	0.20777777777777778
569.6256113108282	0.23855555555555233
569.2092182554734	0.25933333333333497
568.7928062198108	0.26577777777777456
568.3763752025502	0.25
567.9599252023885	0.33044444444444604
567.543456218031	0.28899999999999837
567.126968248179	0.26722222222222225
566.7104612915313	0.24388888888888888
566.2939353467976	0.2677777777777778
565.8773904126664	0.2634444444444428
565.4608264878493	0.20088888888889211
565.0442435710477	0.24222222222222223
564.6276416609538	0.26
564.2110207562797	0.22444444444444445
563.7943808557179	0.2551111111111095
563.3777219579716	0.2545555555555539
562.9610440617463	0.2608888888888921
562.5443471657366	0.2713333333333301
562.1276312686458	0.27811111111111436
561.7108963691708	0.28044444444444605
561.2941424660146	0.3005555555555556
560.8773695578808	0.335222222222219
560.4605776434596	0.3260000000000016
560.0437667214629	0.3213333333333301
559.6269367905788	0.2911111111111111
559.210087849515	0.29422222222222544
558.7932198969705	0.3314444444444477
558.3763329316378	0.32200000000000323
557.9594269522264	0.40355555555555234
557.5425019574247	0.3298888888888905
557.125557945938	0.3253333333333366
556.7085949164676	0.39655555555555716
556.2916128677036	0.38922222222222547
555.8746117983559	0.3471111111111127
555.4575917071105	0.3711111111111111
555.0405525926749	0.3827777777777778
554.6234944537481	0.44655555555555715
554.2064172890205	0.3933333333333333
553.7893210971995	0.4572222222222222
553.3722058769733	0.42777777777777776
552.9550716270476	0.40899999999999836
552.5379183461146	0.44077777777777455
552.1207460328753	0.47
551.7035546860291	0.510444444444446
551.2863443042659	0.47288888888888725
550.8691148862935	0.49477777777778104
550.4518664307977	0.5545555555555539
550.034598936482	0.5567777777777762
549.6173124020431	0.5422222222222223
549.2000068261756	0.5741111111111079
548.7826822075806	0.5263333333333301
548.3653385449485	0.53366666666667
547.947975836976	0.5845555555555539
547.5305940823685	0.5815555555555572
547.1131932798098	0.5926666666666682
546.6957734280055	0.615222222222219
546.2783345256457	0.6208888888888922
545.8608765714274	0.605666666666665
545.4433995640516	0.6879999999999967
545.0259035022042	0.7182222222222239
544.6083883845907	0.7474444444444412
544.1908542098972	0.7276666666666682
543.7733009768225	0.6927777777777778
543.3557286840677	0.7782222222222238
542.9381373303188	0.7955555555555556
542.5205269142768	0.7795555555555539
542.1028974346301	0.7989999999999984
541.6852488900796	0.794333333333335
541.2675812793178	0.7675555555555588
540.8498946010372	0.8312222222222206
540.4321888539369	0.8658888888888921
540.0144640367046	0.9389999999999984
539.5967201480374	0.9972222222222222
539.178957186632	0.9311111111111111
538.7611751511765	1.0057777777777746
538.34337404037	1.1320000000000032
537.9255538529005	1.1451111111111094
537.5077145874648	1.2239999999999984
537.0898562427574	1.2279999999999969
536.6719788174688	1.2312222222222207
536.2540823102956	1.3496666666666635
535.8361667199239	1.3089999999999984
535.4182320450526	1.4901111111111094
535.0002782843742	1.4687777777777793
534.5823054365788	1.5396666666666634
534.1643135003612	1.684777777777781
533.7463024744095	1.7603333333333366
533.3282723574183	1.9875555555555589
532.9102231480844	2.117444444444441
532.4921548450936	2.129555555555554
532.0740674471408	2.388444444444443
531.6559609529138	2.475444444444446
531.2378353611075	2.6331111111111145
530.8196906704163	2.8237777777777793
530.4015268795264	3.1261111111111113
529.9833439871321	3.5215555555555573
529.5651419919218	4.005666666666665
529.1469208925878	4.341000000000002
528.7286806878247	5.0242222222222255
528.3104213763164	5.652444444444441
527.8921429567617	6.411777777777776
527.4738454278403	7.546111111111111
527.0555287882552	8.913555555555552
526.637193036686	10.65366666666667
526.2188381718272	13.137000000000004
525.8004641923736	16.03233333333333
525.3820710970047	20.281444444444446
524.9636588844212	25.752888888888886
524.5452275533052	31.88222222222222
524.1267771023488	39.18
523.7083075302446	45.92755555555556
523.2898188356743	52.65777777777778
522.8713110173368	58.123999999999995
522.4527840739113	62.367777777777775
522.0342380040928	65.45311111111111
521.6156728065735	66.51744444444444
521.1970884800329	65.38211111111112
520.7784850231678	62.06111111111111
520.3598624346599	57.272000000000006
519.9412207132015	51.312666666666665
519.522559857483	45.468444444444444
519.1038798661881	39.83477777777778
518.6851807380093	34.294
518.2664624716282	29.904222222222227
517.8477250657371	25.899666666666665
517.4289685190266	21.875333333333337
517.0101928301759	19.010222222222218
516.5913979978819	16.320444444444448
516.1725840208239	13.703222222222223
515.7537508976902	11.601888888888885
515.3348986271753	9.919222222222226
514.9160272079566	8.398555555555552
514.4971366387285	7.143444444444443
514.0782269181728	6.117222222222222
513.6592980449755	5.332999999999997
513.240350017831	4.638555555555552
512.8213828354145	4.112222222222222
512.4023964964229	3.6655555555555557
511.9833909995311	3.3183333333333334
511.56436634343385	3.026222222222221
511.1453225268149	2.7518888888888857
510.72625954835803	2.5566666666666666
510.30717740675357	2.3568888888888857
509.88807610067875	2.1991111111111077
509.468955628826	2.0628888888888874
509.04981598988127	1.9014444444444476
508.6306571825219	1.7921111111111128
508.2114792054424	1.715222222222219
507.79228205732016	1.634333333333335
507.3730657368433	1.4853333333333365
506.9538302426998	1.4918888888888857
506.534575573567	1.3744444444444444
506.11530172813525	1.3464444444444477
505.69600870508606	1.3266666666666667
505.2766965031011	1.1994444444444445
504.8573651208728	1.2362222222222206
504.43801455707415	1.0281111111111143
504.01864481040184	1.0571111111111127
503.59925587952677	1.0487777777777794
503.17984776314125	1.029777777777781
502.7604204599226	0.9728888888888872
502.34097396855685	0.9737777777777794
501.921508287732	0.8531111111111144
501.50202341612106	0.8828888888888873
501.0825193524186	0.865222222222219
500.6629960952976	0.8689999999999983
500.243453643444	0.8674444444444412
499.8238919955459	0.8454444444444461
499.40431115027627	0.8143333333333349
498.98471110632755	0.7288888888888889
498.5650918623726	0.7920000000000033
498.14545341709743	0.7147777777777811
497.72579576918804	0.7116666666666667
497.30611891731945	0.6644444444444444
496.8864228601798	0.6175555555555587
496.4667075964442	0.630666666666665
496.0469731247986	0.6702222222222189
495.6272194439246	0.6384444444444428
495.20744655250166	0.5996666666666635
494.78765444921356	0.5548888888888905
494.3678431327354	0.6244444444444445
493.9480126017531	0.590666666666665
493.5281628549505	0.5271111111111128
493.1082938910004	0.5632222222222238
492.6884057085911	0.5386666666666698
492.26849830639543	0.5632222222222238
491.84857168309713	0.5733333333333334
491.4286258373801	0.5558888888888921
491.00866076791937	0.5383333333333333
490.5886764733987	0.465222222222219
490.16867295249324	0.5486666666666699
489.74865020388455	0.46899999999999836
489.32860822625867	0.5260000000000016
488.9085470182841	0.5066666666666667
488.488466578649	0.504555555555554
488.0683669060263	0.4558888888888921
487.64824799909763	0.5989999999999984
487.2281098565467	0.48044444444444606
486.8079524770444	0.4510000000000016
486.3877758592766	0.4617777777777762
485.9675800019162	0.4775555555555588
485.5473649036427	0.43322222222222384
485.1271305631399	0.49311111111111433
484.70687697907846	0.47144444444444766
484.28660415014224	0.43666666666666665
483.86631207500636	0.4831111111111143
483.4460007523481	0.4370000000000032
483.025670180849	0.4212222222222206
482.605320359182	0.38155555555555715
482.1849512860309	0.38677777777777617
481.76456296006654	0.3674444444444412
481.3441553799683	0.3968888888888857
480.92372854441777	0.3721111111111127
480.5032824520836	0.32466666666666344
480.0828171016517	0.34411111111110787
479.66233249179066	0.3189999999999984
479.24182862118215	0.33611111111111114
478.8213054885055	0.3476666666666683
478.40076309242943	0.35399999999999837
477.9802014316377	0.3763333333333301
477.55962050479883	0.3070000000000032
477.13902031059666	0.3333333333333333
476.7184008477019	0.34200000000000325
476.29776211478975	0.3613333333333301
475.87710411054394	0.32422222222222546
475.4564268336309	0.2877777777777778
475.03573028273223	0.3382222222222238
474.6150144565166	0.32466666666666344
474.1942793536655	0.31833333333333336
473.7735249728541	0.349777777777781
473.3527513127531	0.3022222222222222
472.9319583720421	0.3163333333333301
472.51114614938956	0.265
472.090314643475	0.21711111111111273
471.66946385297564	0.28922222222222543
471.2485937765579	0.2553333333333366
470.8277044129035	0.22311111111111434
470.4067957606809	0.28888888888888886
469.9858678185653	0.22733333333333172
469.5649205852361	0.26722222222222225
469.14395405935755	0.28433333333333494
468.7229682396156	0.25566666666666504
468.30196312467024	0.2520000000000032
467.880938713203	0.2865555555555572
467.4598950038891	0.2687777777777794
467.0388319953948	0.2460000000000016
466.6177496863997	0.2865555555555572
466.19664807557007	0.23055555555555557
465.77552716158334	0.2263333333333301
465.35438694311455	0.21422222222222545
464.933227418828	0.2276666666666683
464.5120485874074	0.21144444444444768
464.09085044751265	0.23577777777777453
463.6696329978233	0.24244444444444122
463.24839623701223	0.18466666666666343
462.8271401637481	0.2413333333333301
462.4058647767059	0.15799999999999675
461.98457007455215	0.2212222222222206
461.5632560559619	0.24844444444444283
461.14192271961036	0.23
460.7205700641616	0.2237777777777794
460.2991980882931	0.20722222222222222
459.8778067906712	0.1663333333333301
459.45639616996664	0.21655555555555717
459.0349662248589	0.23677777777777617
458.6135169540057	0.2048888888888905
458.1920483560887	0.2361111111111111
457.77056042977216	0.20066666666666505
457.3490531737268	0.30811111111111433
456.9275265866278	0.18066666666666506
456.50598066713934	0.26155555555555715
456.0844154139366	0.28566666666666507
455.6628308256816	0.2975555555555588
455.2412269010517	0.30944444444444447
454.8196036387175	0.28200000000000325
454.39796103734136	0.37277777777777776
453.9762990956003	0.3260000000000016
453.55461781215655	0.35066666666666507
453.13291718568524	0.32455555555555393
452.71119721484837	0.33544444444444604
452.2894578983211	0.27044444444444604
451.867699234772	0.31566666666666504
451.4459212228653	0.3035555555555523
451.0241238612762	0.2798888888888905
450.6023071486668	0.3376666666666683
450.1804710837056	0.2658888888888921
449.75861566506774	0.295666666666665
449.33674089141317	0.2907777777777745
448.914846761417	0.2528888888888873
448.4929332737391	0.26711111111111274
448.0710004270503	0.29577777777777453
447.6490482200257	0.355222222222219
447.22707665132083	0.2698888888888905
446.8050857196109	0.29677777777777614
446.3830754235579	0.3229999999999968
445.9610457618326	0.3136666666666699
445.5389967331037	0.3211111111111111
445.11692833603104	0.30933333333333496
444.69484056929196	0.3472222222222222
444.2727334315398	0.37733333333333174
443.8506069214497	0.4236666666666699
443.4284610376903	0.2998888888888905
443.0062957789193	0.3663333333333301
442.5841111438118	0.30322222222222384
442.1619071310256	0.3662222222222206
441.7396837392293	0.3910000000000016
441.31744096709366	0.41100000000000164
440.8951788132764	0.4215555555555572
440.4728972764505	0.355
440.05059635527374	0.4235555555555523
439.6282760484168	0.3858888888888921
439.2059363545462	0.3775555555555588
438.7835772723197	0.40855555555555234
438.36119880041014	0.44422222222222546
437.9388009374753	0.42533333333333656
437.5163836821839	0.45566666666666505
437.09394703320226	0.4212222222222206
436.67149098918816	0.46844444444444283
436.2490155488145	0.3860000000000016
435.82652071073693	0.43033333333333657
435.40400647362407	0.46788888888888724
434.9814728361423	0.4182222222222238
434.5589197969472	0.44322222222222385
434.1363473547139	0.45022222222221897
433.71375550809364	0.4584444444444428
433.29114425575506	0.4741111111111079
432.8685135963667	0.49233333333333174
432.4458635285842	0.4801111111111095
432.02319405107613	0.4239999999999984
431.6005051625002	0.5058888888888922
431.1777968615208	0.41200000000000325
430.75506914680426	0.4898888888888905
430.3323220170084	0.4324444444444412
429.9095554707996	0.4210000000000016
429.4867695068356	0.4434444444444428
429.06396412378075	0.5313333333333301
428.6411393203014	0.43933333333333496
428.2182950950532	0.4535555555555523
427.7954314467025	0.5037777777777794
427.372548373905	0.394777777777781
426.94964587532917	0.4304444444444461
426.5267239496307	0.4354444444444461
426.10378259547383	0.39255555555555877
425.680821811525	0.39544444444444604
425.25784159643325	0.41588888888889214
424.83484194887154	0.4362222222222206
424.411822867489	0.49833333333333335
423.9887843509541	0.46399999999999836
423.56572639793126	0.4613333333333301
423.1426490070695	0.42933333333333495
422.71955217703953	0.4473333333333317
422.2964359064949	0.4488888888888889
421.8733001940954	0.42677777777777615
421.45014503850973	0.4057777777777745
421.0269704383869	0.44166666666666665
420.60377639239556	0.4622222222222222
420.18056289918695	0.444777777777781
419.7573299574231	0.4971111111111127
419.3340775657706	0.4862222222222206
418.91080572287837	0.39544444444444604
418.4875144274151	0.33055555555555555
418.06420367802986	0.4013333333333301
417.6408734733869	0.4266666666666667
417.21752381215043	0.4074444444444412
416.7941546929653	0.42922222222222545
416.3707661145044	0.4560000000000016
415.9473580754146	0.3887777777777794
415.5239305743603	0.45666666666666667
415.1004836100013	0.4172222222222222
414.67701718098886	0.38577777777777456
414.2535312859894	0.38522222222221897
413.83002592364994	0.4420000000000032
413.40650109263686	0.4362222222222206
412.98295679160566	0.5073333333333317
412.55939301921205	0.47899999999999837
412.1358097741159	0.4
411.7122070549707	0.38577777777777456
411.28858486043407	0.38411111111110785
410.8649431891682	0.41888888888888887
410.44128203982217	0.43966666666666343
410.0176014110602	0.36333333333333334
409.5939013015293	0.4073333333333317
409.1701817098936	0.43222222222222223
408.74644263481093	0.44622222222222063
408.32268407492825	0.4761111111111111
407.8989060289119	0.44766666666666827
407.47510849540885	0.47588888888889214
407.05129147307906	0.43288888888888727
406.6274549605823	0.4272222222222222
406.2035989565657	0.4375555555555588
405.77972345969124	0.42733333333333173
405.3558284686102	0.4214444444444477
404.9319139819781	0.4324444444444412
404.5079799984549	0.45055555555555554
404.0840265166876	0.4598888888888905
403.6600535353382	0.4475555555555588
403.2360610530558	0.48188888888888565
402.81204906849604	0.4772222222222222
402.38801758032093	0.454333333333335
401.9639665871731	0.5083333333333333
401.5398960877147	0.45655555555555716
401.1158060805947	0.4791111111111079
400.6916965644731	0.42566666666666503
400.2675675379968	0.4186666666666699
399.8434189998214	0.4201111111111095
399.41925094860676	0.46788888888888724
398.9950633829977	0.42844444444444285
398.57085630165415	0.4210000000000016
398.14662970322297	0.3962222222222206
397.7223835863598	0.4726666666666683
397.2981179497224	0.44555555555555554
396.87383279195546	0.4479999999999968
396.4495281117211	0.47155555555555717
396.0252039076598	0.51
395.6008601784314	0.4748888888888905
395.1764969226915	0.4855555555555556
394.7521141390848	0.4568888888888857
394.3277118262714	0.515
393.9032899828916	0.4958888888888921
393.4788486076074	0.45755555555555877
393.05438769906806	0.5213333333333301
392.62990725592255	0.5384444444444428
392.20540727682646	0.505666666666665
391.7808877604268	0.6011111111111112
391.3563487053747	0.5789999999999984
390.93179011032805	0.5561111111111111
390.5072119739293	0.5435555555555523
390.0826142948363	0.5689999999999984
389.65799707169157	0.535
389.23336030315073	0.47566666666666507
388.80870398786715	0.4787777777777794
388.38402812448567	0.4727777777777778
387.95933271166183	0.5925555555555588
387.5346177480382	0.549333333333335
387.1098832322682	0.4736666666666699
386.68512916300745	0.4441111111111079
386.2603555388963	0.49188888888888566
385.83556235859476	0.4264444444444477
385.410749620741	0.46044444444444604
384.9859173239885	0.47444444444444445
384.5610654669928	0.49344444444444285
384.13619404839216	0.385
383.7113030668465	0.46455555555555395
383.28639252099407	0.4483333333333333
382.86146240949046	0.4298888888888905
382.4365127309847	0.5288888888888889
382.0115434841195	0.4524444444444412
381.58655466755033	0.47944444444444445
381.16154627991983	0.5323333333333318
380.73651831987706	0.5022222222222222
380.31147078607324	0.4814444444444477
379.886403677151	0.48088888888889214
379.46131699176595	0.46911111111110787
379.03621072855407	0.41588888888889214
378.61108488617106	0.5278888888888873
378.1859394632681	0.4988888888888889
377.76077445848125	0.5616666666666666
377.3355898704662	0.4757777777777745
376.91038569786326	0.5138888888888888
376.4851619393237	0.4984444444444428
376.0599185934966	0.49166666666666664
375.6346556590224	0.5162222222222206
375.20937313455454	0.5303333333333365
374.78407101873125	0.5687777777777794
374.3587493102059	0.5179999999999968
373.93340800761894	0.5266666666666666
373.5080471096172	0.5653333333333366
373.0826666148543	0.5564444444444476
372.657266521964	0.48077777777777453
372.23184682960186	0.47888888888888886
371.80640753640625	0.5948888888888905
371.3809486410261	0.5222222222222223
370.9554701421085	0.5078888888888873
370.52997203829153	0.3988888888888889
370.1044543282287	0.5482222222222238
369.6789170105582	0.49533333333333657
369.253360083927	0.500222222222219
368.827783546982	0.5229999999999968
368.40218739836365	0.5414444444444477
367.97657163672307	0.48177777777777614
367.5509362606943	0.5127777777777778
367.12528126892636	0.5028888888888873
366.69960666006835	0.485666666666665
366.27391243275423	0.5166666666666667
365.84819858563947	0.5472222222222223
365.42246511735374	0.5396666666666634
364.99671202655037	0.5592222222222255
364.5709393118742	0.519555555555554
364.1451469719591	0.48055555555555557
363.71933500545845	0.5112222222222206
363.29350341100405	0.5141111111111079
362.86765218724713	0.5121111111111127
362.4417813328324	0.5160000000000016
362.01589084639386	0.5187777777777794
361.5899807265805	0.5472222222222223
361.1640509720306	0.5379999999999968
360.73810158138673	0.570222222222219
360.312132553298	0.49344444444444285
359.8861438863961	0.5522222222222222
359.46013557933014	0.5344444444444445
359.0341076307362	0.48055555555555557
358.60806003926115	0.5137777777777794
358.1819928035455	0.5042222222222255
357.7559059222252	0.5655555555555556
357.32979939395165	0.5475555555555588
356.90367321735425	0.5564444444444476
356.47752739108006	0.5401111111111095
356.0513619137737	0.4984444444444428
355.62517678406704	0.504555555555554
355.1989720006112	0.5527777777777778
354.7727475620337	0.515
354.34650346698356	0.5438888888888889
353.92023971410333	0.6142222222222254
353.49395630202486	0.6317777777777761
353.0676532293949	0.5912222222222207
352.6413304948475	0.5721111111111127
352.2149880970252	0.5184444444444428
351.7886260345727	0.5837777777777794
351.36224430611963	0.574777777777781
350.93584291031505	0.5531111111111143
350.5094218457885	0.5820000000000032
350.0829811111891	0.5525555555555588
349.6565207051442	0.5787777777777794
349.23004062630076	0.5922222222222222
348.8035408733014	0.5920000000000032
348.37702144477345	0.5742222222222254
347.9504823393638	0.5381111111111143
347.5239235557065	0.5382222222222238
347.09734509243964	0.5365555555555571
346.6707469482059	0.609333333333335
346.24412912163905	0.4911111111111111
345.81749161137964	0.6535555555555523
345.39083441605936	0.5878888888888872
344.9641575343208	0.5674444444444412
344.5374609648065	0.5306666666666651
344.1107447061417	0.5734444444444429
343.6840087569755	0.5579999999999967
343.2572531159353	0.6266666666666667
342.8304777816616	0.5326666666666683
342.4036827527946	0.6174444444444412
341.97686802796625	0.6026666666666682
341.55003360581685	0.654333333333335
341.12317948497815	0.5982222222222239
340.69630566408836	0.6218888888888856
340.26941214179016	0.6303333333333365
339.8424989167087	0.639555555555554
339.41556598748866	0.624555555555554
338.9886133527598	0.6381111111111143
338.5616410111602	0.639555555555554
338.13464896133036	0.6403333333333365
337.70763720189547	0.6548888888888905
337.28060573150026	0.6679999999999968
336.85355454877214	0.6528888888888873
336.4264836523516	0.734777777777781
335.9993930408746	0.7021111111111127
335.5722827129686	0.7329999999999968
335.14515266727835	0.6857777777777745
334.7180029024291	0.7323333333333317
334.29083341705683	0.7396666666666635
333.8636442098042	0.7401111111111095
333.43643527929646	0.7673333333333318
333.0092066241718	0.7045555555555539
332.5819582430598	0.779777777777781
332.15469013459864	0.774777777777781
331.7274022974224	0.7796666666666634
331.3000947301604	0.8195555555555539
330.8727674314533	0.7716666666666666
330.44542039992405	0.7951111111111095
330.01805363421084	0.865
329.59066713295203	0.8441111111111079
329.16326089477275	0.8448888888888905
328.7358349183113	0.8005555555555556
328.30838920219503	0.8608888888888921
327.8809237450579	0.9228888888888873
327.4534385455381	0.9078888888888873
327.0259336022609	0.8701111111111095
326.5984089138624	0.890222222222219
326.1708644789699	0.9445555555555539
325.7433002962196	0.9254444444444461
325.31571636424536	0.9546666666666634
324.88811268167234	1.0805555555555555
324.4604892471388	1.0489999999999984
324.03284605927007	1.010888888888892
323.60518311670216	1.0136666666666698
323.1775004180603	1.0294444444444444
322.74979796198056	1.095888888888892
322.32207574709685	1.116777777777776
321.89433377203005	1.069333333333335
321.4665720354206	1.0729999999999968
321.03879053589156	1.0626666666666682
320.61098927207684	1.0368888888888856
320.1831682426103	1.048888888888889
319.75532744611286	1.0170000000000032
319.327466881225	0.8978888888888873
318.8995865465675	0.9994444444444445
318.4716864407743	0.9779999999999968
318.0437665624772	0.9482222222222239
317.61582691030134	0.9057777777777746
317.1878674828807	0.9951111111111095
316.7598882788383	0.9154444444444461
316.3318892968059	0.9055555555555556
315.90387053541735	0.9055555555555556
315.47583199329364	0.9338888888888889
315.04777366907297	0.9577777777777777
314.6196955613719	0.9513333333333301
314.19159766882643	0.8768888888888856
313.7634799900684	0.9654444444444461
313.3353425237165	0.9257777777777746
312.9071852684068	0.9255555555555556
312.4790082227624	0.9095555555555539
312.0508113854106	0.9427777777777778
311.6225947549876	0.9088888888888889
311.1943583301098	0.9248888888888905
310.76610210941345	0.9032222222222238
310.33782609151933	0.9634444444444429
309.9095302750549	0.9334444444444429
309.4812146586562	1.040888888888892
309.0528792409398	0.9813333333333301
308.6245240205396	0.9653333333333366
308.1961489960765	0.9882222222222239
307.7677541661779	0.9976666666666683
307.3393395294777	1.064111111111108
306.9109050845924	1.0729999999999968
306.48245083015604	1.065444444444446
306.0539767647851	1.0905555555555555
305.6254828871156	1.1110000000000015
305.1969691957707	1.1861111111111111
304.76843568937124	1.2184444444444429
304.33988236654903	1.1457777777777745
303.9113092259248	1.2165555555555572
303.482716266124	1.3024444444444412
303.05410348577817	1.2676666666666683
302.625470883504	1.2765555555555572
302.19681845793315	1.3701111111111095
301.7681462076844	1.3581111111111144
301.33945413138514	1.3014444444444477
300.91074222766275	1.2644444444444445
300.4820104951359	1.2287777777777793
300.05325893243645	1.249555555555554
299.6244875381809	1.251777777777776
299.1956963109988	1.2473333333333316
298.7668852495089	1.2276666666666682
298.3380543523364	1.105444444444446
297.9092036181131	1.150666666666665
297.480333045449	1.1029999999999969
297.0514426329802	1.039777777777781
296.6225323793189	1.039555555555554
296.19360228309466	1.039555555555554
295.76465234293056	1.055
295.3356825574475	1.0907777777777745
294.9066929252707	1.0635555555555523
294.47768344501674	1.0421111111111128
294.048654115313	1.0144444444444445
293.6196049347869	1.0065555555555572
293.19053590204845	0.9311111111111111
292.7614470157316	0.9574444444444412
292.33233827444855	0.9588888888888889
291.90320967682675	0.875666666666665
291.47406122148914	0.9611111111111111
291.04489290705243	0.8338888888888889
290.61570473214385	0.9611111111111111
290.18649669537797	0.9144444444444444
289.7572687953799	0.8216666666666667
289.32802103077495	0.8926666666666683
288.8987534001752	0.860666666666665
288.46946590221046	0.8672222222222222
288.04015853549055	0.8876666666666683
287.61083129864517	0.8443333333333349
287.1814841902951	0.8075555555555588
286.7521172090527	0.8286666666666699
286.32273035354746	0.7972222222222223
285.8933236223916	0.8443333333333349
285.46389701420827	0.7151111111111095
285.0344505276226	0.8010000000000016
284.6049841612446	0.7660000000000016
284.1754979137018	0.7096666666666634
283.74599178360637	0.755222222222219
283.31646576958354	0.7976666666666683
282.88691987025203	0.8263333333333301
282.4573540842262	0.7823333333333318
282.0277684101335	0.7581111111111144
281.5981628465818	0.769555555555554
281.1685373921963	0.7996666666666634
280.738892045598	0.7689999999999984
280.3092268053968	0.81
279.87954167022235	0.8570000000000032
279.44983663868254	0.8389999999999984
279.0201117093983	0.7952222222222189
278.5903668809926	0.7965555555555571
278.16060215207557	0.7956666666666651
277.73081752127234	0.8072222222222222
277.30101298719313	0.7783333333333333
276.8711885484587	0.8227777777777778
276.44134420368994	0.7772222222222223
276.011479951497	0.7981111111111143
275.58159579050505	0.8051111111111094
275.15169171932195	0.854555555555554
274.72176773656867	0.7923333333333317
274.291823840866	0.8684444444444428
273.86186003082196	0.8464444444444477
273.4318763050617	0.8616666666666667
273.0018726621931	0.9296666666666634
272.57184910083924	0.8576666666666682
272.1418056196101	0.8992222222222255
271.71174221712675	0.9127777777777778
271.2816588920034	0.9860000000000017
270.85155564285236	0.9011111111111111
270.4214324682967	0.9255555555555556
269.9912893669421	0.8972222222222223
269.5611263374073	0.9062222222222206
269.13094337831535	0.8141111111111079
268.7007404882677	0.9112222222222206
268.27051766589165	0.8539999999999984
267.84027490979076	0.9284444444444429
267.410012218586	0.7968888888888856
266.97972959089384	0.7803333333333365
266.54942702532225	0.8042222222222255
266.1191045204921	0.7844444444444445
265.6887620750112	0.7633333333333333
265.2583996874962	0.7532222222222238
264.82801735656363	0.7635555555555523
264.3976150808213	0.6555555555555556
263.96719285889026	0.6214444444444477
263.5367506893761	0.619333333333335
263.1062885708954	0.5427777777777778
262.67580650206475	0.5232222222222238
262.2453044814899	0.6128888888888873
261.8147825077938	0.5565555555555571
261.38424057957786	0.4938888888888889
260.9536786954609	0.49077777777777454
260.52309685405726	0.42322222222222383
260.09249505397474	0.41100000000000164
259.66187329383007	0.3962222222222206
259.23123157223097	0.3433333333333333
258.8005698877897	0.40077777777777457
258.36988823912293	0.3725555555555588
257.9391866248384	0.2713333333333301
257.5084650435506	0.20333333333333334
257.07772349386516	0.2703333333333366
256.64696197439656	0.24211111111111272
256.21618048376126	0.2048888888888905
255.78537902056289	0.18944444444444444
255.35455758341797	0.17088888888889212
254.92371617093224	0.17055555555555554
254.49285478171788	0.18166666666666667
254.0619734143915	0.1676666666666683
253.63107206755444	0.13777777777777778
253.20015073982543	0.11088888888889212
252.76920942980587	0.1535555555555523
252.33824813611014	0.14088888888889212
251.90726685735262	0.170222222222219
251.4762655921347	0.12666666666666668
251.0452443390751	0.08855555555555232
250.61420309677302	0.13722222222222222
250.18314186384507	0.10100000000000162
249.75206063890124	0.08855555555555232
249.32095942054727	0.07933333333333495
248.8898382073954	0.06700000000000324
248.45869699804697	0.05399999999999838
248.0275357911229	0.11744444444444122
247.59635458521805	0.05399999999999838
247.16515337895117	0.021555555555557174
246.73393217093013	0.04022222222221899
246.30269095975632	0.03177777777777616
245.87142974404628	0.05722222222222222
245.44014852239923	0.05566666666666505
245.00884729342954	0.07188888888888566
244.57752605574512	0.04977777777778101
244.14618480794954	-0.016222222222220604
243.71482354865495	0.03788888888888727
243.2834422764628	0.02211111111111273
242.8520409899831	0.03822222222222384
242.42061968782593	-0.0008888888888921227
241.98917836859482	0.030111111111109493
241.55771703089982	0.021222222222220605
241.12623567334015	0.039777777777781013
240.69473429453018	0.042777777777777776
240.26321289307566	0.044666666666663433
239.83167146757796	0.023333333333333334
239.40011001665147	-0.0063333333333301
238.96852853889104	0.030777777777774545
238.53692703291108	0.020777777777774543
238.1053054973173	-0.011888888888885655
237.6736639307089	0.06788888888888728
237.2420023317003	0.02655555555555717
236.81032069888852	0.039222222222225454
236.37861903088142	0.012111111111112727
235.94689732628913	0.01822222222222384
235.5151555837108	0.018666666666669902
235.08339380175647	-0.024111111111107877
234.65161197902324	0.04755555555555879
234.21981011412112	0.04455555555555394
233.787988205658	0.046888888888885656
233.35614625222874	-0.013999999999998384
232.92428425244776	0.050555555555555555
232.49240220490995	0.018333333333333333
232.0605001082253	0.04111111111111111
231.62857796099743	-0.013111111111114345
231.19663576182765	0.06522222222221899
230.7646735093239	0.0006666666666650498
230.332691202081	-0.02244444444444121
229.90068883870907	-0.024444444444444446
229.46866641781375	0.0048888888888905056
229.03662393799	0.0351111111111095
228.6045613978478	0.0313333333333301
228.1724787959842	0.018333333333333333
227.74037613100714	-0.016222222222220604
227.30825340151793	0.04266666666666828
226.87611060611584	0.013333333333333334
226.4439477434087	-0.015222222222218989
226.01176481199144	0.028888888888888888
225.5795618104719	-0.008888888888888889
225.1473387374515	0.011333333333330099
224.71509559152722	-0.004666666666663433
224.28283237130915	-0.03188888888888566
223.85054907539	0.006777777777776161
223.41824570237551	-0.00044444444444606134
222.98592225086918	-0.0213333333333301
222.55357871946592	0.01044444444444606
222.12121510677358	-0.03022222222221899
221.68883141138704	-0.026000000000001616
221.2564276319099	0.022333333333331717
220.82400376694562	-0.03277777777777778
220.391559815087	-0.0010000000000016168
219.95909577494402	-0.0586666666666699
219.52661164510724	-0.012666666666668283
219.09410742418672	-0.038777777777779396
218.66158311077297	-0.0035555555555523218
218.2290387034696	0.04777777777777778
217.79647420088008	-0.02277777777777778
217.36388960159718	-0.03700000000000323
216.93128490422876	0.028111111111114345
216.49866010736534	0.021222222222220605
216.0660152096083	0.031555555555557176
215.6333502095634	0.0563333333333301
215.20066510582114	0.024888888888890504
214.76795989698724	0.016222222222220604
214.33523458165223	0.031555555555557176
213.90248915841968	0.035555555555555556
213.46972362589096	0.016222222222220604
213.03693798265877	-0.012222222222222223
212.6041322273245	-0.009444444444444445
212.171306358483	0.03022222222221899
211.73846037473567	0.019222222222225457
211.30559427467955	0.044888888888890505
210.87270805690952	0.020444444444446062
210.4398017200291	0.023444444444442828
210.00687526262885	0.03022222222221899
209.57392868330584	0.047666666666668286
209.1409619806657	0.04144444444444768
208.7079751532969	0.09444444444444444
208.27496819980294	0.09555555555555556
207.84194111877216	0.017000000000003235
207.408893908806	0.05122222222222061
206.9758265685036	0.013555555555552322
206.54273909645556	0.024444444444444446
206.10963149126542	0.005
