768.5491804111048	1.5442444444444523
768.1418053541423	1.1180222222222236
767.7344119301292	1.17084222222224
767.3270001378255	1.501733333333347
766.919569975984	1.1907744444444446
766.512121443371	1.331395555555565
766.104654538731	1.0645411111111105
765.6971692608303	1.4875611111111195
765.2896656084283	1.037735555555555
764.8821435802741	1.326684444444448
764.4746031751316	0.8731111111111144
764.0670443917518	0.9122844444444571
763.6594672288965	0.9260299999999956
763.2518716853233	1.0825844444444455
762.8442577597809	1.0973200000000198
762.4366254510356	0.9374933333333401
762.0289747578362	1.0646733333333396
761.6213056789402	1.286962222222226
761.2136182131094	1.0295177777777846
760.8059123590926	1.2202666666666724
760.3981881156518	1.2142688888888935
759.9904454815378	1.151890000000001
759.5826844555062	1.2061488888889047
759.1749050363206	1.2494044444444525
758.7671072227259	1.110732222222238
758.359291013486	1.4364722222222353
757.9514564073496	1.2608666666666815
757.5436034030721	1.1394666666666713
757.1357319994177	1.4015722222222313
756.7278421951283	1.0967988888888955
756.3199339889704	0.8947722222222364
755.9120073796885	1.1197799999999956
755.5040623660421	1.0858333333333494
755.096098946789	1.3271233333333414
754.6881171206754	1.269597777777801
754.2801168864657	1.0177544444444517
753.8720982429043	1.0621266666666715
753.4640611887509	1.0856766666666793
753.0560057227563	1.060264444444458
752.6479318436759	1.3466500000000168
752.2398395502653	0.9240933333333426
751.831728841273	1.2864600000000146
751.4235997154589	1.060815555555568
751.0154521715696	1.0312244444444434
750.6072862083624	0.9668911111111164
750.1991018245931	1.2447933333333479
749.7908990190057	1.1653855555555654
749.3826777903645	0.8998966666666739
748.9744381374117	0.9372166666666777
748.5661800589027	0.9494911111111125
748.1579035535971	1.2108800000000015
747.7496086202395	1.0716100000000086
747.3412952575874	0.922095555555554
746.9329634643873	1.298812222222235
746.5246132393926	1.4764533333333545
746.1162445813628	0.8239466666666623
745.7078574890403	1.022976666666687
745.2994519611847	1.1209266666666857
744.8910279965384	1.1022155555555624
744.4825855938589	0.9766222222222294
744.0741247518993	1.4783966666666675
743.6656454694064	0.904744444444449
743.2571477451354	1.2754100000000068
742.848631577833	0.8973922222222447
742.4400969662523	1.1691222222222293
742.0315439091466	0.65047444444444
741.6229724052625	1.0965266666666786
741.2143824533555	0.9669122222222278
740.8057740521698	0.9434222222222242
740.3971472004587	0.8964377777777878
739.9885018969776	1.3087688888888969
739.5798381404666	1.0753800000000047
739.1711559296853	1.1950600000000202
738.7624552633761	1.2450866666666762
738.3537361402944	1.2635344444444572
737.9449985591888	1.2115033333333527
737.5362425188041	1.0205311111111304
737.1274680178976	1.3069411111111144
736.7186750552117	1.1312355555555647
736.3098636294974	0.7851444444444496
735.90103373951	0.7991033333333487
735.4921853839897	1.1887400000000101
735.0833185616918	0.6918111111111163
734.6744332713587	0.949794444444447
734.2655295117456	1.0487111111111234
733.8566072815993	1.0643611111111144
733.4476665796664	1.1841377777777962
733.0387074046979	1.0535344444444572
732.6297297554382	1.190987777777789
732.2207336306385	1.1287922222222389
731.8117190290474	1.0904177777777821
731.4026859494096	1.3671066666666754
730.9936343904782	1.3751900000000024
730.5845643509933	1.0919755555555781
730.175475829706	1.139111111111124
729.7663688253693	1.1528555555555633
729.3572433367214	1.1991822222222335
728.9480993625175	1.1856833333333392
728.5389369014977	0.9143155555555617
728.129755952411	0.995600000000009
727.7205565140105	1.1560311111111272
727.3113385850342	0.8259533333333416
726.9021021642374	0.9284366666666756
726.4928472503558	1.3077255555555651
726.0835738421472	0.9656700000000192
725.6742819383494	1.1335544444444532
725.2649715377112	1.126478888888895
724.8556426389815	1.310738888888898
724.4462952409026	1.2153011111111198
724.0369293422256	1.0877700000000186
723.6275449416883	0.9202644444444579
723.2181420380396	1.1748377777777852
722.8087206300328	1.1188966666666642
722.3992807163992	1.2912144444444533
721.9898222958986	1.0322477777777952
721.5803453672625	0.9273244444444491
721.1708499292439	1.033365555555566
720.7613359805896	1.1191788888888874
720.3518035200398	0.7414744444444498
719.9422525463409	0.897353333333352
719.5326830582355	0.9627577777777818
719.1230950544702	0.6844333333333391
718.7134885337939	0.99365666666668
718.3038634949401	1.2275877777777917
717.8942199366641	1.14412111111113
717.4845578576997	1.172048888888902
717.0748772567979	0.7723266666666798
716.6651781327031	0.9331044444444544
716.2554604841532	1.0583133333333374
715.8457243098995	1.2495011111111187
715.4359696086776	1.1558611111111208
715.0261963792342	0.8896155555555662
714.616404620316	0.7502466666666765
714.2065943306587	1.08529777777779
713.7967655090134	0.977012222222224
713.386918154116	1.0341866666666788
712.977052264713	1.0887188888888988
712.5671678395512	1.1912077777777772
712.157264877362	1.0367311111111324
711.7473433769006	0.8144044444444525
711.3374033368989	1.1104844444444462
710.9274447561031	0.8393011111111102
710.5174676332601	0.9941533333333468
710.1074719671014	0.9862644444444676
709.6974577563823	1.3792455555555676
709.2874249998299	1.0864055555555712
708.8773736961951	0.8997266666666838
708.4673038442228	1.0678011111111199
708.057215442644	0.9570855555555641
707.6471084902078	0.9829255555555735
707.2369829856499	0.8932922222222421
706.8268389277149	1.1354822222222316
706.4166763151472	0.9710322222222425
706.0064951466805	0.921345555555567
705.5962954210615	0.7962522222222308
705.1860771370237	0.880367777777784
704.775840293314	1.0126444444444496
704.3655848886724	0.9958900000000075
703.9553109218369	0.7383522222222301
703.5450183915499	1.058447777777797
703.134707296547	0.9399722222222286
702.7243776355753	0.7864566666666684
702.3140294073658	0.6949755555555748
701.9036626106632	0.7296322222222322
701.4932772442121	1.0586833333333359
701.0828733067416	0.879647777777799
700.6724507970007	0.8368833333333411
700.2620097137208	0.9955822222222277
699.8515500556443	0.9440855555555512
699.4410718215134	1.0347233333333377
699.0305750100598	1.1182477777777886
698.6200596200321	0.9267511111111122
698.2095256501597	0.8037411111111094
697.7989730991849	0.8675944444444516
697.3884019658501	0.9489888888889012
696.9778122488846	0.7822933333333478
696.5672039470371	1.0549177777777852
696.1565770590371	0.93577222222223
695.7459315836269	1.1823933333333438
695.3352675195465	0.8984411111111209
694.9245848655254	0.984488888888898
694.5138836203122	1.2173033333333538
694.1031637826343	0.9491955555555696
693.692425351234	1.0204966666666668
693.2816683248534	1.0345555555555621
692.8708927022199	0.9697033333333416
692.46009848208	0.872081111111135
692.0492856631608	0.7095966666666694
691.6384542442048	1.270533333333345
691.2276042239542	1.0890700000000166
690.8167356011342	1.2087688888888968
690.4058483744911	0.9783844444444467
689.9949425427545	1.1292555555555575
689.5840181046623	1.127224444444453
689.1730750589568	0.6669666666666711
688.7621134043652	1.0126555555555712
688.3511331396297	1.1323355555555543
687.940134263482	1.1509277777777849
687.5291167746599	1.2052711111111178
687.1180806719015	1.0077344444444558
686.707025953936	1.1516655555555675
686.2959526195058	0.9498122222222284
685.8848606673403	0.9079033333333468
685.4737500961751	1.2261166666666719
685.0626209047527	0.9483166666666835
684.651473091798	0.9420011111111186
684.2403066560556	1.040486666666677
683.8291215962504	1.2089511111111237
683.4179179111203	1.0446177777777808
683.0066955994079	1.0608533333333454
682.5954546598334	1.1368044444444563
682.1841950911439	0.9252866666666847
681.7729168920664	0.8112377777777955
681.3616200613344	1.124777777777781
680.9503045976883	1.3635555555555685
680.5389704998529	1.2540633333333406
680.1276177665706	0.86154444444446
679.7162463965662	0.8599688888888988
679.3048563885802	1.0939222222222371
678.893447741346	1.1165399999999985
678.4820204535908	1.027194444444451
678.0705745240549	1.1707611111111247
677.659109951463	1.1861888888888967
677.2476267345577	1.169203333333345
676.8361248720615	1.1733244444444426
676.4246043627128	0.6085166666666757
676.013065205247	0.9822088888889023
675.6015073983895	0.9834033333333435
675.18993094088	1.1097466666666636
674.7783358314439	1.0752566666666663
674.3667220688145	1.1211133333333418
673.95508965173	1.0610288888888963
673.5434385789132	1.1186677777777854
673.1317688491064	0.8230500000000109
672.7200804610279	0.8447811111111272
672.3083734134182	0.8995600000000074
671.8966477050107	0.9980633333333309
671.4849033345282	1.4085311111111272
671.0731403007111	1.0870300000000053
670.6613586022797	1.1561255555555787
670.2495582379745	1.142752222222221
669.8377392065245	0.9068122222222317
669.4259015066549	1.1354777777777862
669.0140451371036	1.0395244444444445
668.6021700965935	1.0328733333333446
668.1902763838601	0.9025844444444455
667.7783639976353	1.0717022222222294
667.3664329366418	1.058693333333342
666.9544831996196	1.0945333333333354
666.5425147852873	0.8660299999999956
666.1305276923807	0.6617633333333328
665.7185219196356	0.9085133333333296
665.3064974657683	0.9849677777777833
664.8944543295212	1.0394844444444526
664.4823925096126	0.9818688888888897
664.0703120047763	0.8482066666666651
663.6582128137437	0.7522255555555684
663.24609493524	1.0454188888888973
662.8339583679985	0.8880766666666831
662.4218031107423	0.9912866666666782
662.0096291622027	1.0195177777777846
661.5974365211113	1.3662122222222226
661.1852251861908	0.7821466666666674
660.7729951561749	0.9574677777777834
660.3607464297864	1.175708888888912
659.9484790057548	1.170023333333342
659.5361928828136	0.7849822222222348
659.1238880596833	0.8513644444444637
658.7115645350955	0.9068422222222338
658.2992223077753	0.921375555555569
657.8868613764497	0.6579644444444663
657.4744817398523	0.886428888888897
657.062083396704	0.9833122222222219
656.649666345736	1.054618888888896
656.2372305856691	0.7515088888888972
655.8247761152347	0.753524444444451
655.4123029331622	1.0571077777777746
654.9998110381722	1.4009766666666836
654.5873004289984	1.1421500000000135
654.174771104357	0.9340155555555733
653.7622230629861	0.9263588888889029
653.3496563036018	0.9606600000000132
652.9370708249337	0.9551500000000104
652.5244666257131	1.2426700000000226
652.1118437046564	0.8418377777777883
651.6992020604994	0.9952500000000065
651.2865416919583	0.8664277777777817
650.8738625977625	0.8376944444444476
650.4611647766413	1.2608711111111268
650.048448227311	1.0811544444444492
649.6357129485075	1.2046666666666797
649.222958938947	0.9750788888889009
648.8101861973566	1.2493177777777762
648.3973947224658	1.0541300000000047
647.984584512993	0.9582677777777846
647.5717555676696	1.0805844444444583
647.158907885212	1.0282788888888899
646.7460414643473	1.2621411111111067
646.3331563038048	0.9955700000000232
645.9202524023008	1.1298088888888984
645.5073297585668	0.8531488888889079
645.0943883713213	1.1385588888888984
644.6814282392871	0.9284822222222283
644.2684493611957	0.9376055555555568
643.8554517357634	1.0038200000000101
643.4424353617173	0.8675111111111214
643.0294002377759	1.1017988888888957
642.6163463626642	1.2246133333333353
642.2032737351115	1.0710733333333338
641.7901823538318	1.059114444444454
641.3770722175568	0.8067288888889016
640.9639433250006	0.9580244444444542
640.5507956748881	0.8612911111111073
640.1376292659486	1.035115555555563
639.7244440968942	1.1391233333333448
639.3112401664562	1.1856733333333331
638.8980174733489	1.066561111111126
638.4847760162971	1.439390000000001
638.0715157940282	1.1523877777777831
637.6582368052561	1.3755077777777882
637.244939048708	1.3865455555555593
636.8316225231004	1.0917888888889058
636.418287227158	1.152171111111125
636.0049331596038	1.159396666666677
635.5915603191539	0.746226666666674
635.1781687045379	1.2093322222222276
634.7647583144653	1.0284500000000116
634.3513291476636	1.1136188888888865
633.9378812028574	0.8829277777777881
633.5244144787567	1.1965566666666807
633.1109289740931	1.121686666666679
632.6974246875783	1.254260000000019
632.2839016179374	1.1168111111111163
631.8703597638911	1.3395622222222219
631.4567991241556	1.4428000000000045
631.0432196974559	1.2614600000000145
630.629621482504	1.1646833333333457
630.216004478025	1.2596255555555722
629.8023686827437	1.170168888888891
629.3887140953677	0.8425211111111275
628.9750407146265	1.1254433333333387
628.5613485392319	1.0752466666666765
628.147637567909	1.1295411111111107
627.7339077993718	1.138238888888898
627.3201592323411	1.145434444444448
626.9063918655396	1.0308100000000073
626.4926056976793	1.1954055555555614
626.0788007274851	1.1972644444444611
625.6649769536692	1.1714066666666703
625.251134374952	1.1599222222222307
624.8372729900542	1.003212222222226
624.4233927976921	1.405122222222239
624.0094937965844	1.112135555555562
623.5955759854471	1.035536666666675
623.1816393629965	0.7263566666666722
622.7676839279578	0.6538433333333523
622.3537096790408	0.8190188888888871
621.939716614968	1.1185488888889086
621.5257047344518	0.8639933333333465
621.1116740362103	0.7825688888888949
620.6976245189643	0.8208822222222322
620.2835561814256	1.0435233333333356
619.8694690223195	0.9220211111111307
619.4553630403514	0.9410366666666878
619.0412382342416	1.2120866666666794
618.6270946027155	1.1731188888888897
618.2129321444761	0.5815655555555713
617.7987508582486	1.1008222222222281
617.3845507427448	1.118544444444447
616.9703317966788	0.890961111111117
616.5560940187758	1.1033833333333476
616.1418374077409	1.231395555555565
615.7275619622974	1.2069444444444606
615.3132676811547	1.1020211111111309
614.8989545630293	1.1834244444444548
614.4846226066439	0.7361500000000039
614.0702718107042	0.8402822222222393
613.6559021739305	0.6908177777777826
613.2415136950349	0.8899233333333461
612.8271063727316	1.2017644444444644
612.4126802057413	0.87288111111112
611.9982351927714	0.8497811111111272
611.5837713325427	1.0259177777777788
611.1692886237629	1.1288533333333424
610.7547870651481	1.1542355555555615
610.3402666554169	0.8731011111111244
609.9257273932792	1.1462000000000019
609.5111692774511	0.8012933333333381
609.0965923066425	0.8617900000000049
608.6819964795696	0.9567422222222376
608.267381794949	0.840493333333353
607.852748251488	0.9393600000000152
607.4380958479052	0.7148188888888883
607.0234245829083	1.157984444444446
606.6087344552135	0.8937122222222226
606.1940254635371	0.7861633333333399
605.7792976065847	1.3426877777777877
605.3645508830767	1.1888900000000042
604.9497852917189	1.138626666666678
604.5350008312295	1.267575555555571
604.1201975003139	1.1568044444444563
603.7053752976888	1.1950522222222288
603.2905342220679	1.0140088888888972
602.875674272159	1.1426633333333303
602.4607954466808	0.9588000000000142
602.045897744334	0.8813566666666722
601.6309811638374	1.1392222222222255
601.2160457039072	1.1345077777777786
600.8010913632422	0.9425800000000001
600.3861181405678	0.7533388888888941
599.9711260345824	1.1066000000000027
599.5561150440028	1.1103688888888994
599.1410851675449	1.0713077777777733
598.7260364039103	0.9486111111111273
598.310968751817	1.0457522222222178
597.8958822099685	0.8613111111111195
597.4807767770811	0.6626166666666783
597.0656524518646	0.9536777777777914
596.6505092330244	0.8580555555555717
596.2353471192791	0.9081844444444546
595.8201661093298	0.8982466666666733
595.4049662018905	0.8100766666666863
594.9897473956734	1.1562833333333482
594.5745096893836	0.6360700000000199
594.1592530817335	1.076375555555569
593.7439775714304	0.8784466666666655
593.328683157182	1.0682800000000052
592.9133698377069	0.8674188888888845
592.4980376117019	0.8932700000000154
592.0826864778852	1.0549222222222305
591.6673164349583	0.993670000000016
591.2519274816328	0.8486944444444574
590.8365196166231	0.9584433333333517
590.4210928386259	1.0735566666666676
590.0056471463619	1.0394188888888878
589.5901825385299	0.679061111111126
589.1746990138421	0.9014500000000084
588.7591965710102	0.9632644444444547
588.3436752087334	0.9138944444444497
587.9281349257278	0.9894266666666792
587.5125757206926	0.8423855555555525
587.0969975923396	0.7591744444444419
586.6814005393828	1.101468888888889
586.2657845605171	0.8046922222222364
585.8501496544609	0.5995888888888941
585.4344958199108	1.0410633333333439
585.0188230555813	0.753553333333354
584.6031313601796	0.6558866666666775
584.1874207324072	0.9983822222222322
583.7716911709758	0.7092799999999988
583.3559426745845	0.6323344444444552
582.9401752419452	0.7367055555555594
582.5243888717699	0.8769177777777886
582.108583562751	0.7189877777777858
581.6927593136072	0.6747233333333376
581.276916123035	0.6590433333333446
580.8610539897443	0.8273622222222264
580.4451729124428	0.698696666666672
580.0292728898315	1.028282222222236
579.6133539206203	0.5765666666666706
579.1974160035103	0.6502411111111158
578.7814591372113	0.6874333333333359
578.3654833204223	0.7212688888888967
577.9494885518508	0.8358011111111167
577.5334748302067	0.590401111111116
577.1174421541846	0.9662177777777834
576.7013905225008	0.5937044444444635
576.28531993385	0.7724644444444534
575.8692303869396	0.6604944444444522
575.4531218804776	0.6257088888889121
575.0369944131626	0.3191877777777942
574.6208479837046	0.7087177777777833
574.2046825907981	0.7619500000000051
573.7884982331552	0.6280477777777964
573.3722949094791	0.5213255555555709
572.9560726184689	0.6853733333333447
572.539831358832	0.574711111111117
572.1235711292675	0.7043188888888916
571.7072919284808	0.6698344444444552
571.2909937551797	0.6602822222222393
570.8746766080585	0.6530344444444441
570.4583404858273	0.6746733333333396
570.0419853871806	0.7074155555555707
569.6256113108282	0.528676666666676
569.2092182554734	0.7945244444444446
568.7928062198108	0.8814744444444498
568.3763752025502	0.6927766666666786
567.9599252023885	1.1468177777777762
567.543456218031	0.8709388888888902
567.126968248179	0.6975233333333422
566.7104612915313	0.613686666666682
566.2939353467976	0.675500000000013
565.8773904126664	0.5490477777777899
565.4608264878493	0.4009900000000036
565.0442435710477	0.4801188888888929
564.6276416609538	0.517907777777776
564.2110207562797	0.4546755555555703
563.7943808557179	0.7034455555555663
563.3777219579716	0.7266322222222354
562.9610440617463	0.7537177777777834
562.5443471657366	0.6899544444444634
562.1276312686458	0.804124444444444
561.7108963691708	0.5908744444444407
561.2941424660146	0.6000622222222349
560.8773695578808	0.31689555555556176
560.4605776434596	0.6158511111111147
560.0437667214629	0.7372466666666636
559.6269367905788	0.5397200000000076
559.210087849515	0.4992822222222296
558.7932198969705	0.8917500000000129
558.3763329316378	0.5193444444444483
557.9594269522264	0.697675555555567
557.5425019574247	0.422460000000008
557.125557945938	0.540516666666679
556.7085949164676	0.572393333333344
556.2916128677036	0.6696344444444468
555.8746117983559	0.542861111111124
555.4575917071105	0.8245188888888838
555.0405525926749	0.7836522222222184
554.6234944537481	0.7921100000000054
554.2064172890205	0.5730088888889037
553.7893210971995	0.7199377777777974
553.3722058769733	0.882433333333336
552.9550716270476	0.49663333333333465
552.5379183461146	0.8340711111111159
552.1207460328753	0.7549744444444433
551.7035546860291	0.941405555555571
551.2863443042659	0.6394300000000092
550.8691148862935	0.7530188888888936
550.4518664307977	0.9535144444444611
550.034598936482	0.8187011111111173
549.6173124020431	0.7167700000000089
549.2000068261756	0.8465622222222252
548.7826822075806	0.707735555555555
548.3653385449485	0.7428833333333347
547.947975836976	0.4737377777777955
547.5305940823685	0.8037422222222409
547.1131932798098	0.8531666666666732
546.6957734280055	0.7548477777777912
546.2783345256457	0.6406666666666732
545.8608765714274	0.6709511111111108
545.4433995640516	0.5609288888889002
545.0259035022042	0.6034644444444631
544.6083883845907	0.8544122222222278
544.1908542098972	0.9132666666666692
543.7733009768225	0.7344566666666651
543.3557286840677	0.5721944444444509
542.9381373303188	0.5791511111111161
542.5205269142768	0.8158955555555683
542.1028974346301	0.6762744444444413
541.6852488900796	0.4122655555555603
541.2675812793178	0.6934488888888962
540.8498946010372	0.8358833333333475
540.4321888539369	0.5688766666666843
540.0144640367046	0.7506744444444484
539.5967201480374	0.5396900000000056
539.178957186632	0.7786399999999978
538.7611751511765	0.8746077777777747
538.34337404037	0.7816755555555736
537.9255538529005	0.6373088888888985
537.5077145874648	0.5698833333333378
537.0898562427574	0.933338888888894
536.6719788174688	1.0260955555555604
536.2540823102956	0.8388977777777957
535.8361667199239	0.7059766666666838
535.4182320450526	0.9759755555555684
535.0002782843742	0.8895611111111228
534.5823054365788	0.9881877777777845
534.1643135003612	0.79077222222223
533.7463024744095	0.7204200000000128
533.3282723574183	0.9667744444444543
532.9102231480844	0.8340422222222453
532.4921548450936	0.9700155555555668
532.0740674471408	1.085755555555564
531.6559609529138	1.0171622222222343
531.2378353611075	0.9965911111111119
530.8196906704163	1.1489477777777939
530.4015268795264	1.0640166666666724
529.9833439871321	1.2271255555555722
529.5651419919218	1.2977288888888951
529.1469208925878	1.0938711111111237
528.7286806878247	1.1057800000000053
528.3104213763164	1.1251888888889032
527.8921429567617	0.7020400000000114
527.4738454278403	1.0543122222222316
527.0555287882552	0.8573044444444531
526.637193036686	1.3057300000000072
526.2188381718272	0.9925855555555608
525.8004641923736	1.1469800000000072
525.3820710970047	1.4231877777777846
524.9636588844212	1.2714622222222292
524.5452275533052	1.2535711111111192
524.1267771023488	1.4732977777777867
523.7083075302446	1.4001544444444558
523.2898188356743	1.5641122222222232
522.8713110173368	1.4319122222222278
522.4527840739113	1.418255555555564
522.0342380040928	1.4083955555555683
521.6156728065735	1.5199688888888987
521.1970884800329	1.70421777777778
520.7784850231678	1.7275333333333482
520.3598624346599	1.6744177777777884
519.9412207132015	1.6516188888888994
519.522559857483	1.9641644444444522
519.1038798661881	1.767983333333347
518.6851807380093	1.7197299999999975
518.2664624716282	1.960013333333336
517.8477250657371	2.4439600000000143
517.4289685190266	2.329597777777801
517.0101928301759	2.414164444444452
516.5913979978819	2.463918888888891
516.1725840208239	2.5137955555555687
515.7537508976902	2.6341255555555754
515.3348986271753	2.9435233333333355
514.9160272079566	3.041412222222231
514.4971366387285	3.246392222222235
514.0782269181728	3.1025400000000083
513.6592980449755	3.435822222222228
513.240350017831	3.7905277777777844
512.8213828354145	4.013156666666667
512.4023964964229	4.245272222222233
511.9833909995311	4.505455555555559
511.56436634343385	4.965566666666677
511.1453225268149	5.3219377777777845
510.72625954835803	5.947214444444463
510.30717740675357	5.903563333333327
509.88807610067875	6.098878888888899
509.468955628826	7.039225555555571
509.04981598988127	7.415820000000013
508.6306571825219	7.962358888888897
508.2114792054424	8.695552222222226
507.79228205732016	8.956283333333348
507.3730657368433	9.832604444444458
506.9538302426998	10.200274444444448
506.534575573567	10.921116666666672
506.11530172813525	11.583360000000006
505.69600870508606	12.349530000000005
505.2766965031011	12.858523333333336
504.8573651208728	13.377295555555563
504.43801455707415	13.86037777777779
504.01864481040184	13.625934444444445
503.59925587952677	14.388374444444441
503.17984776314125	14.293366666666682
502.7604204599226	14.394008888888898
502.34097396855685	14.403070000000023
501.921508287732	14.43990888888891
501.50202341612106	14.232421111111115
501.0825193524186	13.868222222222231
500.6629960952976	13.497150000000014
500.243453643444	13.219416666666673
499.8238919955459	12.703040000000005
499.40431115027627	12.38005222222223
498.98471110632755	11.67388777777779
498.5650918623726	11.181553333333351
498.14545341709743	10.356462222222229
497.72579576918804	9.945011111111121
497.30611891731945	9.334715555555562
496.8864228601798	8.407054444444462
496.4667075964442	8.260253333333353
496.0469731247986	7.719931111111121
495.6272194439246	7.226006666666669
495.20744655250166	7.014331111111129
494.78765444921356	6.67960222222223
494.3678431327354	5.824846666666676
493.9480126017531	5.759351111111124
493.5281628549505	5.773096666666663
493.1082938910004	5.277647777777796
492.6884057085911	5.031282222222233
492.26849830639543	4.66444222222223
491.84857168309713	4.5840333333333385
491.4286258373801	4.362782222222239
491.00866076791937	3.8546233333333415
490.5886764733987	4.274875555555579
490.16867295249324	3.8484144444444652
489.74865020388455	3.4681533333333534
489.32860822625867	3.69467555555557
488.9085470182841	3.2190366666666845
488.488466578649	3.2242622222222335
488.0683669060263	2.833001111111112
487.64824799909763	3.049304444444456
487.2281098565467	2.6147644444444613
486.8079524770444	2.7899522222222166
486.3877758592766	2.613140000000001
485.9675800019162	2.3842288888889014
485.5473649036427	2.2550777777777857
485.1271305631399	2.309372222222236
484.70687697907846	2.1732200000000175
484.28660415014224	2.14357666666668
483.86631207500636	1.884604444444461
483.4460007523481	1.7744644444444566
483.025670180849	1.8056588888888978
482.605320359182	1.7177688888888871
482.1849512860309	1.9141300000000046
481.76456296006654	1.9721177777777807
481.3441553799683	1.7526933333333485
480.92372854441777	1.7839611111111138
480.5032824520836	1.800102222222227
480.0828171016517	1.7944733333333311
479.66233249179066	1.5722644444444611
479.24182862118215	1.8658711111111268
478.8213054885055	1.7514544444444538
478.40076309242943	1.6861277777777932
477.9802014316377	1.5813711111111237
477.55962050479883	1.4759655555555622
477.13902031059666	1.5900233333333422
476.7184008477019	1.5448644444444573
476.29776211478975	1.55733333333334
475.87710411054394	1.3586777777777914
475.4564268336309	1.3377955555555592
475.03573028273223	1.4035477777777932
474.6150144565166	1.2503655555555695
474.1942793536655	1.3722633333333296
473.7735249728541	1.1363966666666643
473.3527513127531	1.1707244444444465
472.9319583720421	1.114035555555553
472.51114614938956	0.9759555555555723
472.090314643475	1.0027888888888992
471.66946385297564	1.0948255555555644
471.2485937765579	1.117812222222225
470.8277044129035	0.9818544444444544
470.4067957606809	1.1454722222222256
469.9858678185653	1.4875833333333464
469.5649205852361	0.9924855555555647
469.14395405935755	1.0944833333333372
468.7229682396156	1.0947622222222304
468.30196312467024	1.050954444444457
467.880938713203	1.337085555555564
467.4598950038891	0.8867233333333409
467.0388319953948	1.1609288888889002
466.6177496863997	0.787466666666668
466.19664807557007	0.5789133333333303
465.77552716158334	0.9997677777777911
465.35438694311455	0.9565122222222271
464.933227418828	0.7537977777777997
464.5120485874074	0.9210511111111231
464.09085044751265	0.8211955555555566
463.6696329978233	1.0023177777777892
463.24839623701223	1.021803333333341
462.8271401637481	0.9097711111111211
462.4058647767059	0.8357844444444507
461.98457007455215	0.7469277777777946
461.5632560559619	0.894458888888912
461.14192271961036	0.8914044444444557
460.7205700641616	0.9896177777777807
460.2991980882931	0.7515766666666767
459.8778067906712	0.6543299999999969
459.45639616996664	1.016524444444448
459.0349662248589	0.4460733333333337
458.6135169540057	0.7510144444444611
458.1920483560887	0.5446044444444609
457.77056042977216	0.6687244444444432
457.3490531737268	0.4599422222222428
456.9275265866278	0.8486000000000058
456.50598066713934	0.3735288888888964
456.0844154139366	0.8325800000000001
455.6628308256816	0.9236577777777792
455.2412269010517	0.5255322222222296
454.8196036387175	0.5658344444444487
454.39796103734136	0.5617022222222294
453.9762990956003	0.544114444444454
453.55461781215655	0.5144544444444505
453.13291718568524	0.6419522222222198
452.71119721484837	0.552811111111126
452.2894578983211	0.30952333333334536
451.867699234772	0.2953733333333447
451.4459212228653	0.35338555555556217
451.0241238612762	0.7512811111111336
450.6023071486668	0.36533444444445196
450.1804710837056	0.4462933333333381
449.75861566506774	0.43454555555555596
449.33674089141317	0.6342155555555655
448.914846761417	0.5832266666666772
448.4929332737391	0.5212555555555607
448.0710004270503	0.32116111111112533
447.6490482200257	0.5913177777777795
447.22707665132083	0.4223844444444532
446.8050857196109	0.36625333333334614
446.3830754235579	0.33681222222223167
445.9610457618326	0.258328888888888
445.5389967331037	0.46398888888890116
445.11692833603104	0.5610899999999998
444.69484056929196	0.7773711111111172
444.2727334315398	0.5314011111111095
443.8506069214497	0.559117777777784
443.4284610376903	0.6067233333333408
443.0062957789193	0.2614755555555651
442.5841111438118	0.38652333333333244
442.1619071310256	0.34935000000000904
441.7396837392293	0.2065188888888871
441.31744096709366	0.36715444444445894
440.8951788132764	0.5003755555555754
440.4728972764505	0.2956444444444464
440.05059635527374	0.3796866666666756
439.6282760484168	0.6303011111111199
439.2059363545462	0.4371188888888961
438.7835772723197	0.24290777777777597
438.36119880041014	0.2639466666666623
437.9388009374753	0.06233777777778515
437.5163836821839	0.5644366666666852
437.09394703320226	0.7805111111111183
436.67149098918816	0.29914888888890145
436.2490155488145	0.15442000000001926
435.82652071073693	0.6791644444444521
435.40400647362407	0.578461111111117
434.9814728361423	0.6578855555555654
434.5589197969472	0.4185166666666757
434.1363473547139	0.5381088888888997
433.71375550809364	0.3230344444444442
433.29114425575506	0.2768488888888937
432.8685135963667	0.3926777777777817
432.4458635285842	0.2973122222222284
432.02319405107613	0.46304666666666483
431.6005051625002	0.6697177777777769
431.1777968615208	0.5937255555555748
430.75506914680426	0.5582366666666834
430.3323220170084	0.33217111111112496
429.9095554707996	0.5876255555555691
429.4867695068356	0.41686222222222974
429.06396412378075	0.63047444444444
428.6411393203014	0.6861244444444472
428.2182950950532	0.4462088888889088
427.7954314467025	0.29912333333334473
427.372548373905	0.3929300000000027
426.94964587532917	0.8119633333333413
426.5267239496307	0.5977322222222412
426.10378259547383	0.5735455555555624
425.680821811525	0.3453666666666686
425.25784159643325	0.6883088888889082
424.83484194887154	0.5523755555555787
424.411822867489	0.4249611111111234
423.9887843509541	1.0066300000000046
423.56572639793126	0.2847866666666879
423.1426490070695	0.6888511111111115
422.71955217703953	0.7964000000000103
422.2964359064949	0.4841444444444561
421.8733001940954	0.506896666666661
421.45014503850973	0.629973333333344
421.0269704383869	0.6127377777777858
420.60377639239556	0.5050933333333524
420.18056289918695	0.5271200000000115
419.7573299574231	0.8484933333333498
419.3340775657706	0.6427755555555632
418.91080572287837	0.8899011111111192
418.4875144274151	0.9669811111111226
418.06420367802986	0.6006088888888997
417.6408734733869	0.678878888888899
417.21752381215043	0.9158466666666694
416.7941546929653	0.5937644444444676
416.3707661145044	0.6223855555555524
415.9473580754146	0.7283333333333495
415.5239305743603	0.36166666666668285
415.1004836100013	0.6867700000000089
414.67701718098886	0.8800411111111074
414.2535312859894	0.8473377777777852
413.83002592364994	0.4045566666666774
413.40650109263686	0.584316666666677
412.98295679160566	0.6945077777777785
412.55939301921205	0.7375222222222267
412.1358097741159	0.5847088888889024
411.7122070549707	0.39600555555557043
411.28858486043407	0.6287311111111193
410.8649431891682	0.6792277777777862
410.44128203982217	0.48260666666667223
410.0176014110602	0.5387366666666801
409.5939013015293	0.8112600000000061
409.1701817098936	0.4248833333333379
408.74644263481093	0.6102433333333466
408.32268407492825	0.5314044444444557
407.8989060289119	0.6217955555555656
407.47510849540885	0.5228166666666706
407.05129147307906	0.6073388888889005
406.6274549605823	0.8228944444444561
406.2035989565657	0.6627155555555753
405.77972345969124	0.3138155555555649
405.3558284686102	0.6827988888889053
404.9319139819781	0.5101133333333322
404.5079799984549	0.7586888888888966
404.0840265166876	0.5393700000000212
403.6600535353382	0.8015077777777818
403.2360610530558	0.7481633333333432
402.81204906849604	0.3976544444444557
402.38801758032093	0.6718200000000232
401.9639665871731	0.42729111111111706
401.5398960877147	0.6890833333333366
401.1158060805947	0.5045944444444548
400.6916965644731	0.7343377777777884
400.2675675379968	0.5861022222222204
399.8434189998214	0.45379666666666807
399.41925094860676	0.45229444444444705
398.9950633829977	0.4308033333333474
398.57085630165415	0.557682222222227
398.14662970322297	0.5569388888888999
397.7223835863598	0.5906122222222298
397.2981179497224	0.46193555555555377
396.87383279195546	0.49465444444445894
396.4495281117211	0.6332355555555518
396.0252039076598	0.35038777777779617
395.6008601784314	0.47603888888890245
395.1764969226915	0.5379866666666769
394.7521141390848	0.47201666666666925
394.3277118262714	0.5278344444444519
393.9032899828916	1.0015077777777819
393.4788486076074	0.7387088888889088
393.05438769906806	0.33957000000001347
392.62990725592255	0.5340988888889033
392.20540727682646	0.41015777777778567
391.7808877604268	0.5160100000000157
391.3563487053747	0.6083488888889002
390.93179011032805	0.515344444444458
390.5072119739293	0.4900455555555689
390.0826142948363	0.41909444444445804
389.65799707169157	0.6762688888888968
389.23336030315073	0.43412555555557547
388.80870398786715	0.3848788888888925
388.38402812448567	0.3958500000000155
387.95933271166183	0.42027777777779396
387.5346177480382	0.574597777777801
387.1098832322682	0.628053333333341
386.68512916300745	0.5036088888888965
386.2603555388963	0.5542222222222255
385.83556235859476	0.6180911111111184
385.410749620741	0.37310111111112443
384.9859173239885	0.5760033333333558
384.5610654669928	0.5889344444444577
384.13619404839216	0.4100344444444474
383.7113030668465	0.6130222222222235
383.28639252099407	0.4664777777777797
382.86146240949046	0.34389888888889497
382.4365127309847	0.35740333333335
382.0115434841195	0.48047333333334086
381.58655466755033	0.542131111111133
381.16154627991983	0.5289544444444537
380.73651831987706	0.5410533333333539
380.31147078607324	0.5048066666666677
379.886403677151	0.7322722222222364
379.46131699176595	0.4825288888888867
379.03621072855407	0.603129999999995
378.61108488617106	0.42310222222222366
378.1859394632681	0.2897055555555562
377.76077445848125	0.6122011111111109
377.3355898704662	0.6052044444444538
376.91038569786326	0.46639888888889497
376.4851619393237	0.5763144444444657
376.0599185934966	0.443305555555562
375.6346556590224	0.41972111111112304
375.20937313455454	0.444946666666672
374.78407101873125	0.3741366666666808
374.3587493102059	0.5353033333333507
373.93340800761894	0.5219477777777906
373.5080471096172	0.6060844444444552
373.0826666148543	0.35527555555556317
372.657266521964	0.5123166666666737
372.23184682960186	0.43595111111111085
371.80640753640625	0.3666711111111282
371.3809486410261	0.6515511111111199
370.9554701421085	0.6381055555555698
370.52997203829153	0.47860777777778113
370.1044543282287	0.5720700000000134
369.6789170105582	0.41675000000001294
369.253360083927	0.3062922222222389
368.827783546982	0.3674755555555748
368.40218739836365	0.4377044444444538
367.97657163672307	0.4071955555555663
367.5509362606943	0.48044444444445417
367.12528126892636	0.7735600000000138
366.69960666006835	0.35278888888889925
366.27391243275423	0.45240888888891073
365.84819858563947	0.5823200000000199
365.42246511735374	0.496674444444442
364.99671202655037	0.6250777777777855
364.5709393118742	0.5732411111111125
364.1451469719591	0.4961177777777872
363.71933500545845	0.560931111111131
363.29350341100405	0.44327111111113077
362.86765218724713	0.5340411111111139
362.4417813328324	0.6115677777777859
362.01589084639386	0.5013711111111236
361.5899807265805	0.5128666666666686
361.1640509720306	0.8552455555555611
360.73810158138673	0.6720566666666774
360.312132553298	0.7552166666666744
359.8861438863961	0.6775955555555669
359.46013557933014	0.5038322222222309
359.0341076307362	0.6598177777777892
358.60806003926115	0.5395500000000013
358.1819928035455	0.6212477777777854
357.7559059222252	0.6069644444444566
357.32979939395165	0.6351944444444477
356.90367321735425	0.4992922222222357
356.47752739108006	0.6864444444444476
356.0513619137737	0.5794377777777845
355.62517678406704	0.6433700000000115
355.1989720006112	0.5975811111111317
354.7727475620337	0.5541133333333387
354.34650346698356	0.4814955555555611
353.92023971410333	0.6719744444444465
353.49395630202486	0.5844633333333412
353.0676532293949	0.3893022222222256
352.6413304948475	0.6472422222222344
352.2149880970252	0.6746666666666796
351.7886260345727	0.7404455555555534
351.36224430611963	0.5231877777777845
350.93584291031505	0.5232833333333353
350.5094218457885	0.5057000000000051
350.0829811111891	0.6005355555555596
349.6565207051442	0.317698888888893
349.23004062630076	0.5890766666666766
348.8035408733014	0.7463288888889009
348.37702144477345	0.5445477777777867
347.9504823393638	0.684737777777789
347.5239235557065	0.3303822222222354
347.09734509243964	0.5133411111111087
346.6707469482059	0.579276666666685
346.24412912163905	0.593670000000016
345.81749161137964	0.7694255555555638
345.39083441605936	0.6975766666666863
344.9641575343208	0.6276266666666844
344.5374609648065	0.6071911111111209
344.1107447061417	0.5759955555555644
343.6840087569755	0.6664866666666865
343.2572531159353	0.46391333333333024
342.8304777816616	0.3808922222222383
342.4036827527946	0.7140344444444539
341.97686802796625	0.467463333333338
341.55003360581685	0.5491266666666746
341.12317948497815	0.6117822222222296
340.69630566408836	0.3804200000000128
340.26941214179016	0.4111788888888906
339.8424989167087	0.6336788888888906
339.41556598748866	0.7542700000000089
338.9886133527598	0.6502888888888992
338.5616410111602	0.6100200000000121
338.13464896133036	0.9370655555555681
337.70763720189547	0.8273166666666738
337.28060573150026	0.616624444444444
336.85355454877214	0.4732911111111106
336.4264836523516	0.6315533333333506
335.9993930408746	0.49775000000000647
335.5722827129686	0.7254988888888976
335.14515266727835	0.6537844444444474
334.7180029024291	0.6681388888889018
334.29083341705683	0.4708355555555641
333.8636442098042	0.5211755555555768
333.43643527929646	0.6790688888888852
333.0092066241718	0.3901500000000103
332.5819582430598	0.5781177777777905
332.15469013459864	0.48731333333332766
331.7274022974224	0.6725611111111195
331.3000947301604	0.669356666666669
330.8727674314533	0.13137888888889898
330.44542039992405	0.3310644444444592
330.01805363421084	0.602393333333344
329.59066713295203	0.7598588888888965
329.16326089477275	0.32834000000000946
328.7358349183113	0.7156366666666872
328.30838920219503	0.46761333333333216
327.8809237450579	0.609270000000009
327.4534385455381	0.3682033333333513
327.0259336022609	0.6058066666666774
326.5984089138624	0.4434555555555562
326.1708644789699	0.5468000000000109
325.7433002962196	0.6035500000000078
325.31571636424536	0.5466355555555654
324.88811268167234	0.4632188888888858
324.4604892471388	0.5787577777777754
324.03284605927007	0.4848433333333459
323.60518311670216	0.7336544444444493
323.1775004180603	0.5572844444444571
322.74979796198056	0.6390877777777819
322.32207574709685	0.48891888888889096
321.89433377203005	0.5021233333333415
321.4665720354206	0.5398399999999998
321.03879053589156	0.8688633333333322
320.61098927207684	0.40966222222223425
320.1831682426103	0.5049722222222287
319.75532744611286	0.6730344444444442
319.327466881225	0.6894888888888979
318.8995865465675	0.5923477777777912
318.4716864407743	0.543302222222232
318.0437665624772	0.5595677777777827
317.61582691030134	0.3230299999999988
317.1878674828807	0.6792822222222296
316.7598882788383	0.4941844444444481
316.3318892968059	0.788232222222238
315.90387053541735	0.7802922222222292
315.47583199329364	0.6874388888888967
315.04777366907297	0.5038444444444515
314.6196955613719	0.9965355555555531
314.19159766882643	0.6773955555555585
313.7634799900684	0.6929066666666768
313.3353425237165	0.8165700000000167
312.9071852684068	0.785536666666675
312.4790082227624	0.6761344444444533
312.0508113854106	0.6097744444444511
311.6225947549876	0.596452222222223
311.1943583301098	0.8071833333333456
310.76610210941345	0.7966644444444521
310.33782609151933	0.888305555555562
309.9095302750549	0.8350344444444474
309.4812146586562	0.7593277777777823
309.0528792409398	0.9535877777777851
308.6245240205396	0.9552966666666746
308.1961489960765	0.9756488888889079
307.7677541661779	0.6824444444444574
307.3393395294777	1.01240666666668
306.9109050845924	0.7825077777777754
306.48245083015604	0.727662222222231
306.0539767647851	0.9321955555555663
305.6254828871156	0.8638477777777976
305.1969691957707	0.9433166666666674
304.76843568937124	0.9543222222222377
304.33988236654903	0.9582855555555498
303.9113092259248	0.8255722222222377
303.482716266124	1.0918588888888998
303.05410348577817	1.166358888888903
302.625470883504	1.0303222222222312
302.19681845793315	1.2178422222222434
301.7681462076844	1.0902422222222312
301.33945413138514	1.1454633333333348
300.91074222766275	1.0945522222222321
300.4820104951359	1.0433677777777808
300.05325893243645	0.8740488888889053
299.6244875381809	1.2419166666666732
299.1956963109988	0.8528422222222435
298.7668852495089	1.069084444444452
298.3380543523364	0.9918700000000212
297.9092036181131	0.8017233333333408
297.480333045449	0.9045077777777786
297.0514426329802	1.2451811111111277
296.6225323793189	1.2855644444444625
296.19360228309466	1.2308900000000076
295.76465234293056	1.2230544444444564
295.3356825574475	1.337257777777785
294.9066929252707	1.0629633333333348
294.47768344501674	1.0088466666666662
294.048654115313	1.2479177777777821
293.6196049347869	1.3967900000000049
293.19053590204845	1.431790000000005
292.7614470157316	1.1133466666666694
292.33233827444855	1.2885166666666756
291.90320967682675	1.2930044444444584
291.47406122148914	1.3187877777777937
291.04489290705243	1.246213333333338
290.61570473214385	0.9608566666666755
290.18649669537797	1.2213344444444454
289.7572687953799	1.039976666666674
289.32802103077495	1.2968700000000213
288.8987534001752	1.0556677777777885
288.46946590221046	0.9588000000000142
288.04015853549055	1.1941711111111282
287.61083129864517	0.9385744444444492
287.1814841902951	0.7781377777777865
286.7521172090527	0.8584388888888902
286.32273035354746	0.900441111111108
285.8933236223916	0.8544877777777825
285.46389701420827	0.8315511111111199
285.0344505276226	0.8413100000000041
284.6049841612446	0.7886844444444513
284.1754979137018	0.8663455555555669
283.74599178360637	0.4053955555555553
283.31646576958354	0.8949811111111194
282.88691987025203	0.6173711111111172
282.4573540842262	0.6260322222222263
282.0277684101335	0.5916100000000086
281.5981628465818	0.49533444444445196
281.1685373921963	0.2839666666666744
280.738892045598	0.44465333333334356
280.3092268053968	0.4709400000000056
279.87954167022235	0.5643122222222317
279.44983663868254	0.38049333333333685
279.0201117093983	0.6186122222222264
278.5903668809926	0.519064444444456
278.16060215207557	0.6228488888889033
277.73081752127234	0.45913000000000465
277.30101298719313	0.6808722222222261
276.8711885484587	0.4597222222222384
276.44134420368994	0.40531666666667054
276.011479951497	0.5019944444444586
275.58159579050505	0.645623333333335
275.15169171932195	0.2529144444444521
274.72176773656867	0.6827955555555592
274.291823840866	0.6934866666666737
273.86186003082196	0.4831122222222297
273.4318763050617	0.44957555555557416
273.0018726621931	0.3963633333333322
272.57184910083924	0.5247255555555683
272.1418056196101	0.5388833333333444
271.71174221712675	0.4335588888888985
271.2816588920034	0.19582888888888797
270.85155564285236	-0.08163444444443384
270.4214324682967	-0.11153777777776769
269.9912893669421	0.11008111111113168
269.5611263374073	-0.0920233333333292
269.13094337831535	-0.23091777777776265
268.7007404882677	-0.2580822222222115
268.27051766589165	-0.46036666666665244
267.84027490979076	-0.48271777777777364
267.410012218586	-0.4967777777777681
266.97972959089384	-0.6776833333333262
266.54942702532225	-0.5892866666666587
266.1191045204921	-1.0099355555555343
265.6887620750112	-0.972576666666654
265.2583996874962	-1.1993788888888797
264.82801735656363	-1.420603333333339
264.3976150808213	-1.5341055555555472
263.96719285889026	-1.5709411111111047
263.5367506893761	-1.5441088888888932
263.1062885708954	-1.7982922222222097
262.67580650206475	-1.8996833333333294
262.2453044814899	-2.0674677777777672
261.8147825077938	-2.204593333333323
261.38424057957786	-2.2648677777777713
260.9536786954609	-2.3802233333333342
260.52309685405726	-2.2714411111111015
260.09249505397474	-2.3700844444444455
259.66187329383007	-2.4889899999999843
259.23123157223097	-2.677314444444427
258.8005698877897	-2.6872799999999955
258.36988823912293	-2.712069999999981
257.9391866248384	-2.7945477777777707
257.5084650435506	-2.91704222222221
257.07772349386516	-2.8684311111110987
256.64696197439656	-2.97344888888888
256.21618048376126	-3.047913333333337
255.78537902056289	-3.0457111111110944
255.35455758341797	-3.0646311111111006
254.92371617093224	-3.2510155555555524
254.49285478171788	-3.30129666666666
254.0619734143915	-3.354213333333327
253.63107206755444	-3.267063333333329
253.20015073982543	-3.220063333333326
252.76920942980587	-3.3774688888888824
252.33824813611014	-3.340603333333323
251.90726685735262	-3.4007444444444346
251.4762655921347	-3.342956666666659
251.0452443390751	-3.4115344444444378
250.61420309677302	-3.404377777777772
250.18314186384507	-3.4824522222222165
249.75206063890124	-3.4800188888888806
249.32095942054727	-3.4556033333333227
248.8898382073954	-3.4296411111111067
248.45869699804697	-3.45863666666666
248.0275357911229	-3.5457622222222076
247.59635458521805	-3.5235799999999937
247.16515337895117	-3.5634633333333317
246.73393217093013	-3.5498399999999917
246.30269095975632	-3.5054633333333265
245.87142974404628	-3.597792222222213
245.44014852239923	-3.537245555555548
245.00884729342954	-3.5700822222222146
244.57752605574512	-3.630172222222213
244.14618480794954	-3.483198888888882
243.71482354865495	-3.6440144444444336
243.2834422764628	-3.5490566666666563
242.8520409899831	-3.552518888888881
242.42061968782593	-3.5382144444444323
241.98917836859482	-3.5957355555555517
241.55771703089982	-3.5550155555555505
241.12623567334015	-3.546813333333331
240.69473429453018	-3.5365511111111037
240.26321289307566	-3.6003422222222112
239.83167146757796	-3.606523333333324
239.40011001665147	-3.591682222222217
238.96852853889104	-3.5462388888888787
238.53692703291108	-3.6119511111111042
238.1053054973173	-3.580459999999997
237.6736639307089	-3.5578188888888853
237.2420023317003	-3.63861222222221
236.81032069888852	-3.655725555555546
236.37861903088142	-3.6057033333333273
235.94689732628913	-3.640651111111098
235.5151555837108	-3.6138788888888747
235.08339380175647	-3.587653333333324
234.65161197902324	-3.5903222222222153
234.21981011412112	-3.5774411111111033
233.787988205658	-3.6336388888888824
233.35614625222874	-3.5851855555555487
232.92428425244776	-3.579439999999991
232.49240220490995	-3.600551111111102
232.0605001082253	-3.622271111111105
231.62857796099743	-3.6329855555555532
231.19663576182765	-3.5612488888888847
230.7646735093239	-3.6718688888888815
230.332691202081	-3.6029188888888815
229.90068883870907	-3.6234099999999954
229.46866641781375	-3.6005455555555415
229.03662393799	-3.667195555555542
228.6045613978478	-3.647374444444439
228.1724787959842	-3.6945433333333333
227.74037613100714	-3.5574411111111033
227.30825340151793	-3.6049455555555485
226.87611060611584	-3.655888888888884
226.4439477434087	-3.680355555555547
226.01176481199144	-3.683269999999991
225.5795618104719	-3.626151111111103
225.1473387374515	-3.663973333333326
224.71509559152722	-3.6243422222222095
224.28283237130915	-3.6969777777777684
223.85054907539	-3.647145555555544
223.41824570237551	-3.641159999999994
222.98592225086918	-3.6460233333333196
222.55357871946592	-3.674677777777769
222.12121510677358	-3.667715555555551
221.68883141138704	-3.5894744444444386
221.2564276319099	-3.6345499999999933
220.82400376694562	-3.5800722222222165
220.391559815087	-3.5320933333333313
219.95909577494402	-3.623651111111103
219.52661164510724	-3.6343377777777723
219.09410742418672	-3.538056666666655
218.66158311077297	-3.6329811111111
218.2290387034696	-3.651903333333321
217.79647420088008	-3.6452811111110996
217.36388960159718	-3.539022222222217
216.93128490422876	-3.643427777777769
216.49866010736534	-3.6051422222222107
216.0660152096083	-3.5908544444444366
215.6333502095634	-3.5782077777777723
215.20066510582114	-3.603768888888881
214.76795989698724	-3.6691566666666526
214.33523458165223	-3.5947566666666533
213.90248915841968	-3.581691111111108
213.46972362589096	-3.630066666666656
213.03693798265877	-3.646319999999994
212.6041322273245	-3.62840222222222
212.171306358483	-3.657955555555551
211.73846037473567	-3.658776666666664
211.30559427467955	-3.6083799999999933
210.87270805690952	-3.627944444444438
210.4398017200291	-3.673008888888879
210.00687526262885	-3.630987777777773
209.57392868330584	-3.6394577777777726
209.1409619806657	-3.6042033333333205
208.7079751532969	-3.6994911111111044
208.27496819980294	-3.5992288888888773
207.84194111877216	-3.6617188888888794
207.408893908806	-3.6614344444444336
206.9758265685036	-3.6340477777777656
206.54273909645556	-3.593133333333325
206.10963149126542	-3.684588888888878
