768.5491804111048	1.3437777777777713
768.1418053541423	1.1221777777777686
767.7344119301292	0.9723377777777852
767.3270001378255	0.6966088888888933
766.919569975984	1.6942355555555453
766.512121443371	1.7800955555555509
766.104654538731	1.423166666666657
765.6971692608303	1.7011088888888966
765.2896656084283	1.696677777777772
764.8821435802741	1.5864511111111077
764.4746031751316	1.4344844444444365
764.0670443917518	1.0163622222222168
763.6594672288965	1.223537777777771
763.2518716853233	1.1785933333333296
762.8442577597809	1.7172799999999957
762.4366254510356	0.9132977777777868
762.0289747578362	1.3996111111111047
761.6213056789402	1.0866133333333226
761.2136182131094	1.5010733333333337
760.8059123590926	1.8067888888888894
760.3981881156518	0.9716799999999866
759.9904454815378	0.6698399999999998
759.5826844555062	1.4489555555555529
759.1749050363206	1.1550533333333441
758.7671072227259	1.3963933333333343
758.359291013486	1.591360000000002
757.9514564073496	1.0605088888888874
757.5436034030721	1.084737777777773
757.1357319994177	1.0898666666666719
756.7278421951283	0.8651422222222188
756.3199339889704	1.2086866666666658
755.9120073796885	0.7580666666666609
755.5040623660421	1.5176044444444414
755.096098946789	1.2425533333333443
754.6881171206754	1.5039466666666623
754.2801168864657	1.3467488888888977
753.8720982429043	1.2473333333333236
753.4640611887509	1.2667222222222254
753.0560057227563	1.2191177777777678
752.6479318436759	1.0001466666666643
752.2398395502653	1.4896711111111087
751.831728841273	1.093633333333338
751.4235997154589	0.9855511111111102
751.0154521715696	1.5887155555555525
750.6072862083624	0.8358644444444507
750.1991018245931	1.4755266666666689
749.7908990190057	1.4595399999999952
749.3826777903645	1.7778822222222193
748.9744381374117	1.8824555555555464
748.5661800589027	1.550802222222216
748.1579035535971	1.1315155555555572
747.7496086202395	1.1843222222222216
747.3412952575874	1.41547777777777
746.9329634643873	1.2940911111110958
746.5246132393926	1.491799999999995
746.1162445813628	1.0605577777777702
745.7078574890403	1.1061777777777753
745.2994519611847	1.6821600000000034
744.8910279965384	1.2311066666666657
744.4825855938589	1.339877777777777
744.0741247518993	1.457835555555551
743.6656454694064	1.4710622222222123
743.2571477451354	1.3129133333333205
742.848631577833	1.3372466666666636
742.4400969662523	1.4030933333333329
742.0315439091466	0.9141666666666667
741.6229724052625	1.6839733333333344
741.2143824533555	1.5237733333333259
740.8057740521698	1.6198399999999997
740.3971472004587	1.0722755555555665
739.9885018969776	1.549648888888882
739.5798381404666	1.0122133333333316
739.1711559296853	0.8750066666666599
738.7624552633761	1.1054755555555553
738.3537361402944	1.3826711111111056
737.9449985591888	1.095486666666677
737.5362425188041	0.8079733333333247
737.1274680178976	0.8930422222222195
736.7186750552117	1.1834799999999976
736.3098636294974	1.01164444444444
735.90103373951	1.0013088888888888
735.4921853839897	0.9720355555555499
735.0833185616918	1.179857777777765
734.6744332713587	1.4585355555555402
734.2655295117456	1.2653955555555554
733.8566072815993	1.3428000000000044
733.4476665796664	1.5187777777777713
733.0387074046979	1.0223155555555583
732.6297297554382	1.1385066666666535
732.2207336306385	1.6628022222222192
731.8117190290474	1.2889177777777756
731.4026859494096	1.1540200000000025
730.9936343904782	1.1997244444444368
730.5845643509933	0.6292288888888854
730.175475829706	1.2925755555555547
729.7663688253693	0.9872133333333315
729.3572433367214	0.4055644444444463
728.9480993625175	1.24296444444445
728.5389369014977	1.1509799999999974
728.129755952411	0.7339111111111156
727.7205565140105	1.246388888888889
727.3113385850342	1.4763088888888887
726.9021021642374	1.0706622222222115
726.4928472503558	1.2772466666666635
726.0835738421472	1.319028888888877
725.6742819383494	1.5384822222222283
725.2649715377112	0.7620244444444284
724.8556426389815	0.8688022222222127
724.4462952409026	1.3757222222222159
724.0369293422256	0.5956955555555437
723.6275449416883	0.9947066666666554
723.2181420380396	0.9741999999999987
722.8087206300328	0.9350844444444455
722.3992807163992	0.8771244444444407
721.9898222958986	1.1997133333333316
721.5803453672625	1.2103266666666606
721.1708499292439	1.0495711111111126
720.7613359805896	0.9779666666666648
720.3518035200398	1.118848888888897
719.9422525463409	1.392331111111109
719.5326830582355	0.9331200000000051
719.1230950544702	1.0119022222222056
718.7134885337939	0.8555200000000089
718.3038634949401	1.6914799999999943
717.8942199366641	1.1880622222222155
717.4845578576997	1.2694577777777643
717.0748772567979	0.7993288888888815
716.6651781327031	1.041084444444439
716.2554604841532	0.6709755555555522
715.8457243098995	0.8929822222222153
715.4359696086776	0.9786311111111071
715.0261963792342	1.163597777777775
714.616404620316	0.9889111111111156
714.2065943306587	1.7054600000000049
713.7967655090134	1.4087711111111114
713.386918154116	1.2049555555555465
712.977052264713	0.6427511111111057
712.5671678395512	0.8847999999999916
712.157264877362	0.9185599999999977
711.7473433769006	1.0643511111111084
711.3374033368989	1.2075755555555547
710.9274447561031	1.1331666666666569
710.5174676332601	1.1680711111111062
710.1074719671014	0.9996933333333355
709.6974577563823	1.0985533333333377
709.2874249998299	1.301111111111111
708.8773736961951	0.8253044444444498
708.4673038442228	1.0752444444444458
708.057215442644	1.3513666666666622
707.6471084902078	0.5972266666666676
707.2369829856499	0.8138866666666743
706.8268389277149	1.3294822222222218
706.4166763151472	0.9353355555555511
706.0064951466805	1.5820066666666632
705.5962954210615	1.3500977777777816
705.1860771370237	1.488375555555556
704.775840293314	0.6845066666666632
704.3655848886724	1.5246799999999834
703.9553109218369	1.405795555555556
703.5450183915499	0.834157777777776
703.134707296547	1.0207666666666693
702.7243776355753	1.4539466666666623
702.3140294073658	0.7763755555555528
701.9036626106632	1.4143111111111162
701.4932772442121	1.3292955555555495
701.0828733067416	0.9364933333333304
700.6724507970007	1.297831111111122
700.2620097137208	1.294359999999999
699.8515500556443	0.9560377777777709
699.4410718215134	0.8453755555555593
699.0305750100598	1.5700044444444454
698.6200596200321	1.006017777777775
698.2095256501597	1.3938799999999982
697.7989730991849	1.4175088888888907
697.3884019658501	1.1481244444444343
696.9778122488846	0.5891822222222173
696.5672039470371	1.5680022222222114
696.1565770590371	1.14586888888888
695.7459315836269	1.0450511111110972
695.3352675195465	1.2284955555555481
694.9245848655254	0.6295377777777806
694.5138836203122	1.152351111111105
694.1031637826343	0.9758799999999852
693.692425351234	1.1789599999999982
693.2816683248534	1.395902222222212
692.8708927022199	2.275337777777782
692.46009848208	1.159642222222222
692.0492856631608	1.0147333333333275
691.6384542442048	1.160895555555552
691.2276042239542	1.2986200000000019
690.8167356011342	0.7488088888888887
690.4058483744911	0.9959333333333295
689.9949425427545	1.154479999999991
689.5840181046623	1.0695311111111208
689.1730750589568	1.8135666666666577
688.7621134043652	0.7027666666666563
688.3511331396297	1.1074399999999958
687.940134263482	1.2841399999999945
687.5291167746599	1.336117777777771
687.1180806719015	0.7502844444444378
686.707025953936	1.1451666666666602
686.2959526195058	0.7469666666666712
685.8848606673403	1.2553911111110938
685.4737500961751	1.1496777777777687
685.0626209047527	0.7538600000000022
684.651473091798	0.9906644444444423
684.2403066560556	0.8314200000000064
683.8291215962504	1.3680377777777741
683.4179179111203	1.1451244444444375
683.0066955994079	0.8264311111111117
682.5954546598334	1.2272866666666717
682.1841950911439	1.0324422222222267
681.7729168920664	0.9147355555555421
681.3616200613344	0.7603888888888792
680.9503045976883	1.0168711111111042
680.5389704998529	1.157924444444442
680.1276177665706	0.9669422222222298
679.7162463965662	1.0218155555555617
679.3048563885802	0.7892955555555494
678.893447741346	1.0253244444444296
678.4820204535908	1.3091977777777841
678.0705745240549	1.2596866666666755
677.659109951463	1.352344444444445
677.2476267345577	1.0584266666666695
676.8361248720615	1.2656222222222195
676.4246043627128	1.3002933333333284
676.013065205247	1.2062155555555525
675.6015073983895	1.3628377777777818
675.18993094088	0.9509444444444347
674.7783358314439	1.492682222222227
674.3667220688145	0.8117266666666708
673.95508965173	1.3164377777777716
673.5434385789132	0.9179000000000006
673.1317688491064	0.6051733333333201
672.7200804610279	1.029413333333327
672.3083734134182	1.7863622222222169
671.8966477050107	0.9499622222222226
671.4849033345282	0.9842088888888894
671.0731403007111	1.2053799999999886
670.6613586022797	0.8782155555555559
670.2495582379745	0.5330333333333288
669.8377392065245	0.7451866666666723
669.4259015066549	1.1142888888888896
669.0140451371036	1.1500777777777693
668.6021700965935	0.9948666666666719
668.1902763838601	1.1457577777777623
667.7783639976353	0.7766533333333306
667.3664329366418	1.136366666666662
666.9544831996196	1.02460888888889
666.5425147852873	1.2643488888888936
666.1305276923807	1.6145555555555458
665.7185219196356	1.0344799999999912
665.3064974657683	1.269373333333335
664.8944543295212	0.6474799999999878
664.4823925096126	0.9996044444444447
664.0703120047763	0.5196977777777809
663.6582128137437	1.1509600000000015
663.24609493524	1.22875333333333
662.8339583679985	1.2255933333333329
662.4218031107423	1.1159222222222243
662.0096291622027	1.7091822222222173
661.5974365211113	1.6398599999999957
661.1852251861908	0.9170399999999952
660.7729951561749	0.9066355555555492
660.3607464297864	0.9599199999999999
659.9484790057548	0.9191066666666625
659.5361928828136	1.4589533333333384
659.1238880596833	0.6288999999999941
658.7115645350955	0.6393844444444403
658.2992223077753	0.6072555555555542
657.8868613764497	0.499157777777776
657.4744817398523	0.7672066666666554
657.062083396704	0.9340866666666665
656.649666345736	1.3193311111111123
656.2372305856691	1.366226666666674
655.8247761152347	1.052277777777781
655.4123029331622	1.3518955555555456
654.9998110381722	1.3970844444444326
654.5873004289984	0.9073066666666677
654.174771104357	1.334184444444432
653.7622230629861	0.6674288888888906
653.3496563036018	0.9492222222222254
652.9370708249337	1.2647044444444409
652.5244666257131	1.3975622222222188
652.1118437046564	1.0417399999999908
651.6992020604994	0.4565155555555571
651.2865416919583	0.8808022222222159
650.8738625977625	1.1540644444444559
650.4611647766413	1.56634666666665
650.048448227311	0.922828888888875
649.6357129485075	0.768348888888884
649.222958938947	1.160491111111106
648.8101861973566	0.7990777777777759
648.3973947224658	1.0440111111111117
647.984584512993	1.50586888888888
647.5717555676696	0.6957088888888959
647.158907885212	0.9165933333333265
646.7460414643473	1.306186666666666
646.3331563038048	1.3606511111111064
645.9202524023008	0.6505155555555636
645.5073297585668	1.3982955555555558
645.0943883713213	1.0531222222222196
644.6814282392871	1.1896200000000114
644.2684493611957	1.1997555555555544
643.8554517357634	1.188706666666662
643.4424353617173	1.3092399999999906
643.0294002377759	1.7349644444444534
642.6163463626642	1.1172666666666595
642.2032737351115	1.5408444444444387
641.7901823538318	0.84750666666666
641.3770722175568	0.9543955555555456
640.9639433250006	1.0839022222222088
640.5507956748881	1.802486666666664
640.1376292659486	1.5863022222222127
639.7244440968942	0.7971022222222139
639.3112401664562	1.3036888888888805
638.8980174733489	1.4977599999999964
638.4847760162971	0.9003133333333244
638.0715157940282	0.9933866666666775
637.6582368052561	0.9945399999999952
637.244939048708	1.1392066666666587
636.8316225231004	1.4894177777777724
636.418287227158	1.1416155555555532
636.0049331596038	1.1507111111111106
635.5915603191539	0.8696333333333314
635.1781687045379	1.1255711111111062
634.7647583144653	0.7623777777777772
634.3513291476636	1.0538511111111115
633.9378812028574	1.0489133333333303
633.5244144787567	1.467417777777769
633.1109289740931	1.535079999999984
632.6974246875783	1.1812111111111072
632.2839016179374	1.2799044444444492
631.8703597638911	1.5130133333333167
631.4567991241556	1.2237155555555526
631.0432196974559	0.8619799999999911
630.629621482504	1.4048933333333278
630.216004478025	1.7546200000000116
629.8023686827437	1.3402711111111179
629.3887140953677	1.4154466666666525
628.9750407146265	1.2829133333333205
628.5613485392319	0.621906666666667
628.147637567909	0.927168888888878
627.7339077993718	0.8707311111111227
627.3201592323411	1.0780533333333409
626.9063918655396	0.709797777777777
626.4926056976793	1.6582955555555559
626.0788007274851	1.2652555555555511
625.6649769536692	1.1155844444444423
625.251134374952	1.2408511111110985
624.8372729900542	0.1809666666666615
624.4233927976921	2.0279133333333204
624.0094937965844	1.391191111111095
623.5955759854471	1.1860822222222245
623.1816393629965	1.1252177777777737
622.7676839279578	1.4544444444444444
622.3537096790408	1.0842822222222297
621.939716614968	0.8519466666666591
621.5257047344518	1.2493911111111002
621.1116740362103	1.2475311111111174
620.6976245189643	1.0325244444444412
620.2835561814256	1.1682577777777623
619.8694690223195	1.1249133333333237
619.4553630403514	0.95384666666665
619.0412382342416	0.9109711111111068
618.6270946027155	1.2377200000000044
618.2129321444761	1.1666022222222172
617.7987508582486	1.0473088888888984
617.3845507427448	1.0881777777777784
616.9703317966788	1.1348577777777649
616.5560940187758	0.5217799999999827
616.1418374077409	0.935066666666664
615.7275619622974	1.3447066666666554
615.3132676811547	1.0795333333333352
614.8989545630293	0.6526200000000083
614.4846226066439	1.615739999999997
614.0702718107042	1.0737111111111073
613.6559021739305	1.279966666666668
613.2415136950349	0.9274622222222226
612.8271063727316	0.8939999999999902
612.4126802057413	1.381528888888877
611.9982351927714	1.6881822222222238
611.5837713325427	1.000888888888892
611.1692886237629	1.1563955555555487
610.7547870651481	1.2717822222222297
610.3402666554169	0.9141755555555574
609.9257273932792	0.8892311111111162
609.5111692774511	0.8562222222222126
609.0965923066425	1.1095666666666673
608.6819964795696	0.7441822222222173
608.267381794949	0.7641244444444277
607.852748251488	0.6973711111111172
607.4380958479052	0.7578866666666646
607.0234245829083	1.428491111111103
606.6087344552135	0.93884666666665
606.1940254635371	1.0657844444444344
605.7792976065847	0.8187511111110992
605.3645508830767	0.9309488888888963
604.9497852917189	1.0255688888888754
604.5350008312295	0.5099511111111011
604.1201975003139	0.8960533333333377
603.7053752976888	1.2382644444444546
603.2905342220679	0.979960000000008
602.875674272159	0.8680955555555475
602.4607954466808	0.8094488888888898
602.045897744334	1.153739999999994
601.6309811638374	0.5776044444444415
601.2160457039072	0.7830022222222114
600.8010913632422	1.016157777777763
600.3861181405678	1.6483199999999973
599.9711260345824	1.5535511111111069
599.5561150440028	0.7961688888888845
599.1410851675449	0.9764799999999944
598.7260364039103	0.8554022222222153
598.310968751817	0.9733977777777828
597.8958822099685	0.6696311111111168
597.4807767770811	1.2491355555555492
597.0656524518646	1.1658577777777748
596.6505092330244	0.8553044444444499
596.2353471192791	0.9530288888888835
595.8201661093298	0.8891488888888852
595.4049662018905	1.3948200000000037
594.9897473956734	1.281548888888889
594.5745096893836	0.9407066666666651
594.1592530817335	1.0773333333333237
593.7439775714304	0.7436822222222206
593.328683157182	0.7599266666666598
592.9133698377069	0.8334222222222242
592.4980376117019	0.9145022222222178
592.0826864778852	1.103382222222216
591.6673164349583	0.6575244444444414
591.2519274816328	1.0766444444444399
590.8365196166231	0.9505177777777781
590.4210928386259	0.6037755555555567
590.0056471463619	0.45239555555554234
589.5901825385299	0.48820222222221976
589.1746990138421	0.6844422222222298
588.7591965710102	0.017071111111112664
588.3436752087334	0.7697844444444409
587.9281349257278	0.6414377777777716
587.5125757206926	0.9517622222222174
587.0969975923396	0.382317777777773
586.6814005393828	0.6504311111111181
586.2657845605171	0.09795777777777402
585.8501496544609	1.1197711111111048
585.4344958199108	0.35144444444444767
585.0188230555813	0.8832355555555518
584.6031313601796	0.3883733333333253
584.1874207324072	0.8902755555555631
583.7716911709758	1.0101555555555548
583.3559426745845	0.6857399999999971
582.9401752419452	0.6394644444444404
582.5243888717699	0.6139466666666623
582.108583562751	0.6216955555555533
581.6927593136072	-0.28309555555554755
581.276916123035	0.8380155555555636
580.8610539897443	0.9379999999999967
580.4451729124428	0.7824422222222266
580.0292728898315	0.890079999999984
579.6133539206203	0.313915555555561
579.1974160035103	0.6856866666666691
578.7814591372113	0.4259577777777708
578.3654833204223	0.4961755555555606
577.9494885518508	0.4761422222222286
577.5334748302067	-0.01745333333334808
577.1174421541846	0.6247133333333316
576.7013905225008	0.5504000000000007
576.28531993385	0.05864666666665774
575.8692303869396	0.44475777777776887
575.4531218804776	-0.01232888888889445
575.0369944131626	1.1644155555555578
574.6208479837046	0.7420155555555539
574.2046825907981	0.9303733333333285
573.7884982331552	0.33696888888888576
573.3722949094791	0.530491111111106
572.9560726184689	0.5218644444444444
572.539831358832	0.3568399999999868
572.1235711292675	0.6570133333333231
571.7072919284808	0.858246666666657
571.2909937551797	0.8436466666666578
570.8746766080585	0.4372711111111049
570.4583404858273	0.1783199999999973
570.0419853871806	0.17951333333332312
569.6256113108282	0.1663799999999982
569.2092182554734	0.28337999999998525
568.7928062198108	0.3881133333333289
568.3763752025502	0.3683711111111107
567.9599252023885	0.7287511111110992
567.543456218031	0.024377777777780364
567.126968248179	0.9210888888888844
566.7104612915313	0.5629333333333327
566.2939353467976	0.2902822222222231
565.8773904126664	0.677102222222214
565.4608264878493	0.7133911111111068
565.0442435710477	0.6176622222222149
564.6276416609538	0.5693088888888855
564.2110207562797	0.5867733333333227
563.7943808557179	0.2896311111111168
563.3777219579716	0.36171333333331857
562.9610440617463	0.44183555555554144
562.5443471657366	0.5153377777777819
562.1276312686458	0.9417422222222215
561.7108963691708	1.0686066666666658
561.2941424660146	0.31217777777776873
560.8773695578808	0.7140933333333265
560.4605776434596	0.7367088888888894
560.0437667214629	0.5977688888888871
559.6269367905788	0.7314355555555409
559.210087849515	0.8600666666666641
558.7932198969705	0.9098711111111172
558.3763329316378	0.4472599999999996
557.9594269522264	0.3792288888888854
557.5425019574247	0.1786222222222164
557.125557945938	0.450882222222216
556.7085949164676	-0.21900000000000647
556.2916128677036	0.2634822222222283
555.8746117983559	0.01774444444444574
555.4575917071105	0.6878444444444418
555.0405525926749	0.7178733333333286
554.6234944537481	0.5428799999999885
554.2064172890205	0.4486111111111111
553.7893210971995	0.8896733333333233
553.3722058769733	0.5192866666666749
552.9550716270476	0.5643488888888937
552.5379183461146	0.47786444444445403
552.1207460328753	0.445444444444438
551.7035546860291	0.33803999999998874
551.2863443042659	0.16767555555556707
550.8691148862935	0.49083333333333334
550.4518664307977	0.4895399999999952
550.034598936482	0.3609466666666655
549.6173124020431	0.8536222222222164
549.2000068261756	0.7434977777777789
548.7826822075806	0.3929755555555554
548.3653385449485	0.5207422222222279
547.947975836976	0.5364111111111156
547.5305940823685	0.5084133333333173
547.1131932798098	0.25919555555555335
546.6957734280055	0.7796600000000035
546.2783345256457	0.5619933333333271
545.8608765714274	0.35826444444445465
545.4433995640516	0.8325488888888827
545.0259035022042	0.4090355555555531
544.6083883845907	0.5094644444444566
544.1908542098972	0.35864666666665773
543.7733009768225	0.13506888888887866
543.3557286840677	0.870115555555563
542.9381373303188	0.8613777777777675
542.5205269142768	0.2586511111111031
542.1028974346301	0.6607933333333413
541.6852488900796	0.6519155555555578
541.2675812793178	0.5176933333333323
540.8498946010372	0.813477777777783
540.4321888539369	0.9262644444444514
540.0144640367046	0.8695177777777685
539.5967201480374	0.5871533333333435
539.178957186632	0.16923333333333074
538.7611751511765	0.7212822222222166
538.34337404037	0.3487555555555607
537.9255538529005	0.6919622222222097
537.5077145874648	0.6223466666666597
537.0898562427574	0.48870222222221654
536.6719788174688	0.8679955555555514
536.2540823102956	1.1186355555555525
535.8361667199239	0.8191444444444399
535.4182320450526	0.514595555555554
535.0002782843742	0.6084533333333416
534.5823054365788	0.5068555555555536
534.1643135003612	0.441711111111104
533.7463024744095	0.8746333333333314
533.3282723574183	0.6857955555555559
532.9102231480844	0.7487955555555527
532.4921548450936	1.3350866666666763
532.0740674471408	0.6015466666666583
531.6559609529138	0.5832822222222199
531.2378353611075	0.8223422222222305
530.8196906704163	0.7057444444444425
530.4015268795264	1.0361333333333378
529.9833439871321	0.9734311111111149
529.5651419919218	0.7857666666666693
529.1469208925878	0.9879088888888914
528.7286806878247	1.1957111111111105
528.3104213763164	0.9496444444444366
527.8921429567617	1.236191111111095
527.4738454278403	1.077771111111118
527.0555287882552	1.1171266666666715
526.637193036686	1.3223577777777649
526.2188381718272	1.2109266666666696
525.8004641923736	1.306522222222217
525.3820710970047	1.0524399999999958
524.9636588844212	1.0966088888888932
524.5452275533052	1.111239999999994
524.1267771023488	1.4875155555555506
523.7083075302446	1.879062222222209
523.2898188356743	1.4333022222222158
522.8713110173368	1.4375266666666722
522.4527840739113	1.3760333333333257
522.0342380040928	1.2982577777777624
521.6156728065735	1.6284333333333294
521.1970884800329	1.2680577777777702
520.7784850231678	1.7445311111111206
520.3598624346599	1.5708377777777787
519.9412207132015	1.60720222222221
519.522559857483	1.9899466666666559
519.1038798661881	2.1382733333333293
518.6851807380093	2.096866666666659
518.2664624716282	2.2701288888888826
517.8477250657371	2.33486222222221
517.4289685190266	2.3135822222222244
517.0101928301759	2.335295555555543
516.5913979978819	2.569704444444441
516.1725840208239	2.433075555555568
515.7537508976902	2.802875555555559
515.3348986271753	3.1743822222222255
514.9160272079566	2.866126666666662
514.4971366387285	3.44663777777778
514.0782269181728	3.385259999999996
513.6592980449755	3.744851111111105
513.240350017831	4.254479999999991
512.8213828354145	3.951859999999999
512.4023964964229	4.309788888888886
511.9833909995311	4.422457777777761
511.56436634343385	5.32657999999999
511.1453225268149	4.789833333333323
510.72625954835803	5.690275555555563
510.30717740675357	6.271668888888882
509.88807610067875	6.362088888888894
509.468955628826	7.165182222222227
509.04981598988127	7.656251111111099
508.6306571825219	8.236964444444457
508.2114792054424	8.408733333333334
507.79228205732016	9.367637777777773
507.3730657368433	10.116302222222213
506.9538302426998	10.524597777777785
506.534575573567	11.01085555555556
506.11530172813525	11.92101555555556
505.69600870508606	12.296933333333323
505.2766965031011	13.608648888888888
504.8573651208728	14.382784444444438
504.43801455707415	14.723315555555551
504.01864481040184	14.898633333333338
503.59925587952677	15.728542222222233
503.17984776314125	15.879660000000003
502.7604204599226	16.33579777777779
502.34097396855685	16.29872888888889
501.921508287732	16.05172444444444
501.50202341612106	15.94934444444445
501.0825193524186	16.048302222222215
500.6629960952976	15.975335555555551
500.243453643444	15.46272888888888
499.8238919955459	14.912375555555563
499.40431115027627	14.664533333333335
498.98471110632755	14.189513333333323
498.5650918623726	13.635733333333338
498.14545341709743	13.239262222222218
497.72579576918804	12.052048888888885
497.30611891731945	11.687539999999991
496.8864228601798	11.273888888888889
496.4667075964442	10.49313111111111
496.0469731247986	9.61537555555556
495.6272194439246	9.125633333333324
495.20744655250166	8.606242222222225
494.78765444921356	8.21040888888889
494.3678431327354	7.376682222222217
493.9480126017531	7.553786666666678
493.5281628549505	7.1958777777777705
493.1082938910004	6.369611111111104
492.6884057085911	6.272728888888879
492.26849830639543	6.080535555555543
491.84857168309713	5.721151111111103
491.4286258373801	5.473551111111107
491.00866076791937	4.937433333333336
490.5886764733987	5.197811111111109
490.16867295249324	4.227222222222222
489.74865020388455	4.125677777777779
489.32860822625867	3.894459999999995
488.9085470182841	3.4755155555555635
488.488466578649	3.759015555555557
488.0683669060263	3.9381844444444383
487.64824799909763	3.269866666666672
487.2281098565467	3.408617777777771
486.8079524770444	3.0575155555555504
486.3877758592766	3.181137777777783
485.9675800019162	3.0898799999999915
485.5473649036427	2.3396111111111044
485.1271305631399	2.7305022222222113
484.70687697907846	2.5847599999999997
484.28660415014224	2.431475555555565
483.86631207500636	2.5534733333333213
483.4460007523481	2.1644977777777887
483.025670180849	2.1054622222222195
482.605320359182	1.7260755555555645
482.1849512860309	1.990560000000001
481.76456296006654	1.928624444444431
481.3441553799683	2.049117777777768
480.92372854441777	1.9934511111111108
480.5032824520836	1.398713333333322
480.0828171016517	1.9000444444444373
479.66233249179066	1.732546666666652
479.24182862118215	1.8456311111111103
478.8213054885055	1.6877044444444376
478.40076309242943	1.8277333333333243
477.9802014316377	1.5534866666666736
477.55962050479883	1.220997777777779
477.13902031059666	1.28116666666667
476.7184008477019	2.055017777777765
476.29776211478975	1.5316244444444278
475.87710411054394	1.2876644444444456
475.4564268336309	1.653544444444447
475.03573028273223	1.6650044444444454
474.6150144565166	1.0071911111111047
474.1942793536655	1.4568377777777721
473.7735249728541	1.4002333333333243
473.3527513127531	1.1389422222222332
472.9319583720421	0.8194088888888978
472.51114614938956	1.4597733333333196
472.090314643475	1.0604399999999927
471.66946385297564	1.2351711111111054
471.2485937765579	1.049797777777777
470.8277044129035	0.954022222222217
470.4067957606809	1.236375555555553
469.9858678185653	0.7377177777777736
469.5649205852361	0.9352311111111097
469.14395405935755	0.9084177777777788
468.7229682396156	0.9603266666666604
468.30196312467024	1.2177599999999964
467.880938713203	0.9780444444444341
467.4598950038891	1.0119399999999992
467.0388319953948	1.0038377777777754
466.6177496863997	1.3910866666666697
466.19664807557007	0.8301555555555549
465.77552716158334	0.7430488888888956
465.35438694311455	1.1031777777777785
464.933227418828	0.7290599999999945
464.5120485874074	0.5155311111111143
464.09085044751265	0.23812888888887956
463.6696329978233	0.9232155555555558
463.24839623701223	0.3788844444444435
462.8271401637481	0.8617666666666628
462.4058647767059	0.49767777777778166
461.98457007455215	0.992762222222211
461.5632560559619	0.8465755555555613
461.14192271961036	0.37424888888889757
460.7205700641616	1.0489688888888729
460.2991980882931	0.9280022222222114
459.8778067906712	0.8479644444444502
459.45639616996664	0.5993488888888937
459.0349662248589	0.43626444444445145
458.6135169540057	0.6617933333333349
458.1920483560887	0.34692444444443227
457.77056042977216	0.6965133333333263
457.3490531737268	0.32722222222222225
456.9275265866278	0.7367088888888894
456.50598066713934	0.445626666666665
456.0844154139366	0.8399733333333279
455.6628308256816	0.5913288888888848
455.2412269010517	0.8311266666666618
454.8196036387175	0.5567155555555493
454.39796103734136	0.3444599999999951
453.9762990956003	0.6980844444444423
453.55461781215655	0.4984200000000096
453.13291718568524	0.5466044444444479
452.71119721484837	0.3760822222222244
452.2894578983211	0.13585333333334548
451.867699234772	0.2969511111111044
451.4459212228653	0.25889555555554883
451.0241238612762	-0.025042222222238907
450.6023071486668	0.057033333333335275
450.1804710837056	0.09028444444443771
449.75861566506774	0.3074711111111133
449.33674089141317	0.02724444444444897
448.914846761417	0.26128222222221664
448.4929332737391	0.21951555555555388
448.0710004270503	0.4263777777777674
447.6490482200257	0.5320222222222138
447.22707665132083	0.7913422222222208
446.8050857196109	0.07753999999999198
446.3830754235579	-0.17547111111111008
445.9610457618326	0.016902222222205537
445.5389967331037	0.10442000000000311
445.11692833603104	-0.18655555555556524
444.69484056929196	-0.06246888888888255
444.2727334315398	0.14881111111110334
443.8506069214497	-0.1624177777777691
443.4284610376903	0.22467777777776873
443.0062957789193	0.07921777777776394
442.5841111438118	0.015120000000008278
442.1619071310256	0.013426666666669512
441.7396837392293	-0.09623333333333398
441.31744096709366	0.07686666666665891
440.8951788132764	0.35122888888888865
440.4728972764505	0.17876888888888062
440.05059635527374	0.10555555555555556
439.6282760484168	-0.25046444444445015
439.2059363545462	0.11781111111110981
438.7835772723197	0.021737777777776097
438.36119880041014	0.4206933333333291
437.9388009374753	0.13975333333333967
437.5163836821839	0.5614777777777797
437.09394703320226	0.002317777777772992
436.67149098918816	-0.04202888888888992
436.2490155488145	0.1106911111110983
435.82652071073693	0.7189288888888808
435.40400647362407	-0.03554888888889562
434.9814728361423	0.18226888888887413
434.5589197969472	0.0019644444444566036
434.1363473547139	0.4958399999999933
433.71375550809364	0.09897333333333437
433.29114425575506	0.02493999999999586
432.8685135963667	0.06805777777777014
432.4458635285842	0.40819777777777444
432.02319405107613	0.0644377777777845
431.6005051625002	0.2887088888888926
431.1777968615208	0.5623866666666678
430.75506914680426	0.552062222222222
430.3323220170084	0.28031555555555515
429.9095554707996	0.1845777777777726
429.4867695068356	0.16403111111110774
429.06396412378075	0.4231155555555597
428.6411393203014	-0.0488333333333301
428.2182950950532	0.11940666666666705
427.7954314467025	0.44958222222221794
427.372548373905	0.6834933333333336
426.94964587532917	0.11685777777776821
426.5267239496307	0.15632666666667017
426.10378259547383	0.5598155555555584
425.680821811525	0.3154822222222154
425.25784159643325	-0.10343777777779097
424.83484194887154	0.06623111111111939
424.411822867489	0.37711777777776456
423.9887843509541	0.8866399999999945
423.56572639793126	0.39018666666667234
423.1426490070695	0.4761755555555606
422.71955217703953	0.5306688888888877
422.2964359064949	0.44805333333334096
421.8733001940954	0.23449333333332711
421.45014503850973	0.3663600000000022
421.0269704383869	-0.07118666666668205
420.60377639239556	0.5168488888888937
420.18056289918695	0.7614222222222209
419.7573299574231	0.7314377777777715
419.3340775657706	0.9583177777777665
418.91080572287837	0.8286488888888885
418.4875144274151	0.733995555555545
418.06420367802986	0.07507555555555478
417.6408734733869	-0.08546888888887931
417.21752381215043	0.07093111111111486
416.7941546929653	0.604542222222226
416.3707661145044	0.888995555555545
415.9473580754146	0.4697422222222344
415.5239305743603	0.27568666666666913
415.1004836100013	0.69970222222221
414.67701718098886	0.6132688888888839
414.2535312859894	0.42347333333332143
413.83002592364994	0.4687199999999979
413.40650109263686	0.33246888888888254
412.98295679160566	0.5462222222222125
412.55939301921205	0.14608444444443902
412.1358097741159	0.36797555555555544
411.7122070549707	0.39267999999999625
411.28858486043407	0.19946888888888578
410.8649431891682	0.28934888888889365
410.44128203982217	0.6313933333333343
410.0176014110602	0.6208755555555561
409.5939013015293	0.5979355555555472
409.1701817098936	0.23074888888888787
408.74644263481093	0.11458444444443254
408.32268407492825	0.10535777777776174
407.8989060289119	0.4814866666666704
407.47510849540885	0.026784444444444187
407.05129147307906	0.6113444444444354
406.6274549605823	0.37787777777777387
406.2035989565657	-0.14394222222223307
405.77972345969124	0.07447999999999108
405.3558284686102	0.17621333333332181
404.9319139819781	0.29649333333333033
404.5079799984549	0.12987999999999172
404.0840265166876	0.31242222222221444
403.6600535353382	0.2572866666666717
403.2360610530558	0.47451555555555386
402.81204906849604	0.33921777777776396
402.38801758032093	0.7367888888888895
401.9639665871731	0.18476666666665956
401.5398960877147	0.42941555555555777
401.1158060805947	0.4787311111111194
400.6916965644731	0.557728888888879
400.2675675379968	0.4781222222222196
399.8434189998214	0.28172000000001085
399.41925094860676	0.3748799999999917
398.9950633829977	0.40730444444445313
398.57085630165415	0.08205555555554585
398.14662970322297	-0.023266666666669253
397.7223835863598	0.6424199999999999
397.2981179497224	0.5030177777777781
396.87383279195546	0.46027111111111785
396.4495281117211	0.5786355555555525
396.0252039076598	0.58797777777777
395.6008601784314	0.641382222222229
395.1764969226915	0.7239333333333262
394.7521141390848	0.3199733333333279
394.3277118262714	0.0004266666666727461
393.9032899828916	0.12593555555554403
393.4788486076074	0.01872222222221252
393.05438769906806	-0.07628000000000207
392.62990725592255	0.08299333333333682
392.20540727682646	0.1159822222222283
391.7808877604268	0.373382222222216
391.3563487053747	0.33473777777777286
390.93179011032805	0.06928666666667495
390.5072119739293	0.27623111111111937
390.0826142948363	-0.12641333333333024
389.65799707169157	-0.13413111111112003
389.23336030315073	0.29269999999999224
388.80870398786715	-0.15717777777778488
388.38402812448567	-0.027255555555554263
387.95933271166183	0.7801333333333281
387.5346177480382	0.07087999999998526
387.1098832322682	0.17558222222222766
386.68512916300745	-0.021584444444435778
386.2603555388963	0.23064888888889173
385.83556235859476	0.10531555555555516
385.410749620741	0.23478222222222636
384.9859173239885	-0.22435111111110825
384.5610654669928	0.37626222222222067
384.13619404839216	0.21224666666666356
383.7113030668465	0.06086000000000543
383.28639252099407	0.040937777777774804
382.86146240949046	0.45154222222222923
382.4365127309847	0.18524444444444574
382.0115434841195	0.010937777777774802
381.58655466755033	0.06716888888887802
381.16154627991983	0.5482177777777704
380.73651831987706	0.4115666666666705
380.31147078607324	0.011062222222212263
379.886403677151	0.2978111111111098
379.46131699176595	0.49285555555554716
379.03621072855407	0.14578444444443447
378.61108488617106	0.08237555555556254
378.1859394632681	-0.14127111111111137
377.76077445848125	-0.02851111111111499
377.3355898704662	0.3901111111111014
376.91038569786326	0.1562600000000061
376.4851619393237	0.23120000000000193
376.0599185934966	-0.09902888888889316
375.6346556590224	0.5476577777777695
375.20937313455454	0.1607977777777867
374.78407101873125	-0.28052000000000893
374.3587493102059	-0.19510444444445763
373.93340800761894	0.3114311111111116
373.5080471096172	0.6067755555555535
373.0826666148543	0.037895555555555294
372.657266521964	-0.04357555555556448
372.23184682960186	0.2544644444444566
371.80640753640625	0.16212888888888605
371.3809486410261	0.10400888888889717
370.9554701421085	0.048248888888887856
370.52997203829153	-0.09133555555554469
370.1044543282287	0.04435999999999896
369.6789170105582	0.31893333333332624
369.253360083927	-0.33255111111111346
368.827783546982	0.09799111111110606
368.40218739836365	0.17498666666666396
367.97657163672307	-0.09646222222222908
367.5509362606943	0.5391422222222253
367.12528126892636	0.27221333333333153
366.69960666006835	0.17783555555555117
366.27391243275423	0.40685999999999894
365.84819858563947	0.7044555555555497
365.42246511735374	-0.036986666666683356
364.99671202655037	0.15883777777777544
364.5709393118742	0.48752000000001217
364.1451469719591	0.3248888888888824
363.71933500545845	0.7798555555555504
363.29350341100405	0.47910222222221716
362.86765218724713	0.10701999999999923
362.4417813328324	0.42501333333331986
362.01589084639386	0.20877333333332596
361.5899807265805	0.08855777777776691
361.1640509720306	0.11141777777777558
360.73810158138673	0.1063422222222208
360.312132553298	0.10122222222221253
359.8861438863961	0.08017111111110554
359.46013557933014	0.11070000000000517
359.0341076307362	0.08073777777778256
358.60806003926115	0.0624911111111093
358.1819928035455	0.1746422222222221
357.7559059222252	0.4626377777777735
357.32979939395165	0.20074666666665708
356.90367321735425	0.22825777777776238
356.47752739108006	0.19903777777778386
356.0513619137737	0.423766666666666
355.62517678406704	0.3777311111111097
355.1989720006112	0.15528444444443773
354.7727475620337	0.35391333333333025
354.34650346698356	0.414966666666668
353.92023971410333	0.10993333333333592
353.49395630202486	0.22183111111111228
353.0676532293949	0.06832666666667339
352.6413304948475	0.15741333333332377
352.2149880970252	0.6068088888888855
351.7886260345727	0.2711888888888805
351.36224430611963	0.11721777777777687
350.93584291031505	0.14335111111109855
350.5094218457885	0.4621622222222181
350.0829811111891	0.10868666666666589
349.6565207051442	0.36578666666666526
349.23004062630076	0.5271733333333234
348.8035408733014	0.462924444444442
348.37702144477345	0.5266177777777679
347.9504823393638	-0.00980000000000776
347.5239235557065	0.1205511111111102
347.09734509243964	0.5799000000000039
346.6707469482059	0.07837333333332532
346.24412912163905	0.07860888888889651
345.81749161137964	0.09283333333333657
345.39083441605936	-0.15577999999998912
344.9641575343208	0.33458222222221795
344.5374609648065	0.0798711111111172
344.1107447061417	-0.010313333333324409
343.6840087569755	0.5380711111111062
343.2572531159353	-0.2575266666666721
342.8304777816616	-0.08604666666666162
342.4036827527946	0.37759555555555074
341.97686802796625	0.14661555555555322
341.55003360581685	0.45560444444443826
341.12317948497815	0.5410622222222122
340.69630566408836	0.45138222222222896
340.26941214179016	0.20753999999999198
339.8424989167087	0.3152866666666685
339.41556598748866	-0.20764444444444963
338.9886133527598	0.08152222222221704
338.5616410111602	0.41534444444444185
338.13464896133036	0.3186866666666659
337.70763720189547	0.184393333333331
337.28060573150026	0.14749777777778542
336.85355454877214	0.24171555555554936
336.4264836523516	0.45318222222222376
335.9993930408746	-0.183086666666673
335.5722827129686	-0.22202444444444458
335.14515266727835	0.05586000000000543
334.7180029024291	0.2989333333333262
334.29083341705683	-0.5379066666666605
333.8636442098042	0.03384888888889691
333.43643527929646	0.29849999999999355
333.0092066241718	0.2394511111111044
332.5819582430598	0.11269555555554689
332.15469013459864	0.09452222222221382
331.7274022974224	0.38834666666665324
331.3000947301604	0.5358999999999974
330.8727674314533	-0.1530333333333288
330.44542039992405	-0.1509955555555482
330.01805363421084	-0.3289200000000063
329.59066713295203	-0.6782511111111025
329.16326089477275	-0.5773377777777852
328.7358349183113	0.11609777777777507
328.30838920219503	0.30068444444443837
327.8809237450579	0.21077777777777454
327.4534385455381	0.15231111111111306
327.0259336022609	0.3470022222222178
326.5984089138624	0.5013511111111115
326.1708644789699	0.012897777777786057
325.7433002962196	-0.061626666666674684
325.31571636424536	0.3054888888888915
324.88811268167234	0.44562000000000507
324.4604892471388	0.030453333333344844
324.03284605927007	-0.02262444444443746
323.60518311670216	0.07247777777777326
323.1775004180603	0.2634933333333336
322.74979796198056	0.3755311111111142
322.32207574709685	0.5758733333333254
321.89433377203005	-0.10652444444444781
321.4665720354206	-0.12435111111110826
321.03879053589156	0.31173555555554533
320.61098927207684	-0.11904222222222921
320.1831682426103	0.4185244444444349
319.75532744611286	0.3198155555555584
319.327466881225	0.5996044444444447
318.8995865465675	0.15360444444445118
318.4716864407743	0.1959466666666655
318.0437665624772	0.2124177777777691
317.61582691030134	0.18485777777776496
317.1878674828807	0.3008111111111066
316.7598882788383	0.6429999999999968
316.3318892968059	0.08029111111109766
315.90387053541735	0.19771777777777363
315.47583199329364	0.8446733333333234
315.04777366907297	-0.09767777777778165
314.6196955613719	0.42644888888889304
314.19159766882643	0.3725866666666762
313.7634799900684	0.5133888888888921
313.3353425237165	0.47109777777777506
312.9071852684068	0.5932933333333413
312.4790082227624	0.5027533333333364
312.0508113854106	0.2436399999999978
311.6225947549876	0.34310888888889973
311.1943583301098	0.8240822222222212
310.76610210941345	0.2712688888888806
310.33782609151933	0.6518688888888735
309.9095302750549	0.4411666666666699
309.4812146586562	0.6526088888888868
309.0528792409398	0.5141244444444277
308.6245240205396	0.4630711111111062
308.1961489960765	0.41556666666666087
307.7677541661779	0.676151111111103
307.3393395294777	0.44249333333334007
306.9109050845924	0.6972177777777768
306.48245083015604	0.6017911111111042
306.0539767647851	0.46170666666665866
305.6254828871156	0.5831977777777744
305.1969691957707	0.33052666666666886
304.76843568937124	0.6761044444444512
304.33988236654903	0.695295555555543
303.9113092259248	1.1768311111111123
303.482716266124	0.7793399999999868
303.05410348577817	1.3062688888888807
302.625470883504	0.593053333333341
302.19681845793315	0.6101866666666723
301.7681462076844	0.8372022222222101
301.33945413138514	0.7667555555555575
300.91074222766275	1.0728799999999885
300.4820104951359	0.7182111111111105
300.05325893243645	0.6043422222222338
299.6244875381809	0.6519511111111044
299.1956963109988	0.47300222222221133
298.7668852495089	0.5392733333333227
298.3380543523364	0.7550377777777774
297.9092036181131	0.5829666666666647
297.480333045449	1.0021999999999955
297.0514426329802	1.0536777777777753
296.6225323793189	1.0072533333333398
296.19360228309466	1.1588999999999943
295.76465234293056	0.5318022222222094
295.3356825574475	0.9044155555555577
294.9066929252707	1.250337777777782
294.47768344501674	0.7770266666666753
294.048654115313	0.8411555555555484
293.6196049347869	0.8018244444444361
293.19053590204845	0.878511111111115
292.7614470157316	1.0031177777777742
292.33233827444855	1.2301022222222107
291.90320967682675	1.0293622222222136
291.47406122148914	0.7842311111111162
291.04489290705243	1.011251111111099
290.61570473214385	1.0371511111111127
290.18649669537797	0.6026155555555629
289.7572687953799	1.0570199999999992
289.32802103077495	0.7459533333333416
288.8987534001752	0.7079199999999967
288.46946590221046	0.6763355555555447
288.04015853549055	0.4141177777777678
287.61083129864517	0.3490266666666624
287.1814841902951	0.776946666666659
286.7521172090527	0.7571200000000116
286.32273035354746	0.31510444444444147
285.8933236223916	0.2698777777777771
285.46389701420827	0.5790377777777839
285.0344505276226	0.16419555555555335
284.6049841612446	0.12830444444444664
284.1754979137018	0.616879999999995
283.74599178360637	0.03810444444443824
283.31646576958354	0.17886444444444755
282.88691987025203	0.2709555555555562
282.4573540842262	0.3166733333333266
282.0277684101335	0.28805777777777014
281.5981628465818	-0.04433111111111228
281.1685373921963	0.03840444444444276
280.738892045598	-0.058811111111119516
280.3092268053968	0.2719777777777765
279.87954167022235	0.2865444444444438
279.44983663868254	0.08350222222220813
279.0201117093983	0.16272888888887893
278.5903668809926	0.025971111111106844
278.16060215207557	0.0531155555555597
277.73081752127234	-0.01879333333333812
277.30101298719313	0.10837999999998525
276.8711885484587	0.2284822222222283
276.44134420368994	-0.3966800000000027
276.011479951497	0.07546000000000479
275.58159579050505	-0.20908444444443577
275.15169171932195	0.057982222222215364
274.72176773656867	-0.23722222222222222
274.291823840866	-0.22242888888889056
273.86186003082196	-0.018155555555551674
273.4318763050617	-0.3430622222222155
273.0018726621931	-0.39378444444444743
272.57184910083924	-0.6954555555555595
272.1418056196101	-0.3828955555555553
271.71174221712675	-0.3265933333333427
271.2816588920034	-0.614320000000007
270.85155564285236	-0.7146244444444407
270.4214324682967	-0.9124044444444492
269.9912893669421	-0.9977511111111057
269.5611263374073	-0.6314711111111198
269.13094337831535	-1.0018955555555618
268.7007404882677	-1.156448888888893
268.27051766589165	-1.3600933333333363
267.84027490979076	-1.1038355555555448
267.410012218586	-1.9337644444444515
266.97972959089384	-2.032648888888895
266.54942702532225	-2.2310555555555522
266.1191045204921	-2.2543844444444403
265.6887620750112	-2.5462044444444474
265.2583996874962	-2.5356644444444587
264.82801735656363	-3.0451444444444498
264.3976150808213	-3.31258
263.96719285889026	-3.1988844444444435
263.5367506893761	-3.1596711111111087
263.1062885708954	-3.4448555555555505
262.67580650206475	-3.3935022222222244
262.2453044814899	-3.5958222222222282
261.8147825077938	-3.7511955555555567
261.38424057957786	-4.024704444444457
260.9536786954609	-4.205104444444458
260.52309685405726	-4.347524444444441
260.09249505397474	-4.339482222222222
259.66187329383007	-4.552802222222219
259.23123157223097	-4.7021822222222305
258.8005698877897	-4.795
258.36988823912293	-4.764800000000008
257.9391866248384	-5.118226666666677
257.5084650435506	-5.050995555555549
257.07772349386516	-5.2009644444444465
256.64696197439656	-5.2134022222222285
256.21618048376126	-5.330268888888887
255.78537902056289	-5.4538488888888965
255.35455758341797	-5.513508888888884
254.92371617093224	-5.43375555555556
254.49285478171788	-5.521020000000005
254.0619734143915	-5.6689000000000105
253.63107206755444	-5.810579999999997
253.20015073982543	-5.788540000000002
252.76920942980587	-5.8279488888888995
252.33824813611014	-5.681473333333335
251.90726685735262	-5.942526666666672
251.4762655921347	-5.890175555555551
251.0452443390751	-5.844966666666668
250.61420309677302	-5.885808888888892
250.18314186384507	-5.972497777777769
249.75206063890124	-6.034459999999995
249.32095942054727	-6.040251111111106
248.8898382073954	-6.177306666666667
248.45869699804697	-6.074008888888897
248.0275357911229	-6.104902222222234
247.59635458521805	-6.029606666666676
247.16515337895117	-6.09372444444446
246.73393217093013	-6.122386666666668
246.30269095975632	-6.107324444444449
245.87142974404628	-6.044893333333344
245.44014852239923	-6.127759999999997
245.00884729342954	-6.19078888888888
244.57752605574512	-6.161799999999995
244.14618480794954	-6.1717955555555655
243.71482354865495	-6.105984444444443
243.2834422764628	-6.192871111111114
242.8520409899831	-6.205046666666668
242.42061968782593	-6.169506666666663
241.98917836859482	-6.161195555555556
241.55771703089982	-6.2694644444444565
241.12623567334015	-6.268497777777779
240.69473429453018	-6.246828888888897
240.26321289307566	-6.168908888888901
239.83167146757796	-6.173477777777783
239.40011001665147	-6.223073333333337
238.96852853889104	-6.278495555555565
238.53692703291108	-6.193375555555556
238.1053054973173	-6.224553333333331
237.6736639307089	-6.166795555555566
237.2420023317003	-6.17874666666667
236.81032069888852	-6.263220000000001
236.37861903088142	-6.200644444444446
235.94689732628913	-6.239791111111117
235.5151555837108	-6.221460000000015
235.08339380175647	-6.272055555555562
234.65161197902324	-6.261231111111119
234.21981011412112	-6.211017777777775
233.787988205658	-6.207126666666672
233.35614625222874	-6.278271111111114
232.92428425244776	-6.284208888888889
232.49240220490995	-6.278333333333333
232.0605001082253	-6.284226666666671
231.62857796099743	-6.185042222222223
231.19663576182765	-6.23029777777779
230.7646735093239	-6.344675555555554
230.332691202081	-6.170484444444446
229.90068883870907	-6.268357777777775
229.46866641781375	-6.333613333333342
229.03662393799	-6.278668888888885
228.6045613978478	-6.168144444444446
228.1724787959842	-6.2489600000000145
227.74037613100714	-6.219080000000006
227.30825340151793	-6.231497777777776
226.87611060611584	-6.215617777777775
226.4439477434087	-6.288493333333333
226.01176481199144	-6.241260000000006
225.5795618104719	-6.209399999999991
225.1473387374515	-6.257273333333336
224.71509559152722	-6.275999999999994
224.28283237130915	-6.177497777777769
223.85054907539	-6.227702222222223
223.41824570237551	-6.2736866666666655
222.98592225086918	-6.2978066666666646
222.55357871946592	-6.2240733333333305
222.12121510677358	-6.2757800000000055
221.68883141138704	-6.271926666666663
221.2564276319099	-6.276137777777783
220.82400376694562	-6.306171111111115
220.391559815087	-6.28045777777779
219.95909577494402	-6.22718222222223
219.52661164510724	-6.215371111111114
219.09410742418672	-6.278833333333346
218.66158311077297	-6.322553333333344
218.2290387034696	-6.276211111111107
217.79647420088008	-6.324022222222217
217.36388960159718	-6.218799999999998
216.93128490422876	-6.259420000000003
216.49866010736534	-6.34085555555556
216.0660152096083	-6.231117777777771
215.6333502095634	-6.317488888888895
215.20066510582114	-6.296677777777788
214.76795989698724	-6.218771111111112
214.33523458165223	-6.295766666666669
213.90248915841968	-6.238700000000002
213.46972362589096	-6.312528888888886
213.03693798265877	-6.277975555555556
212.6041322273245	-6.284742222222234
212.171306358483	-6.287331111111109
211.73846037473567	-6.334431111111108
211.30559427467955	-6.311937777777785
210.87270805690952	-6.2379222222222275
210.4398017200291	-6.2742311111111
210.00687526262885	-6.346415555555561
209.57392868330584	-6.267426666666676
209.1409619806657	-6.34890444444444
208.7079751532969	-6.281197777777788
208.27496819980294	-6.311517777777788
207.84194111877216	-6.2471355555555625
207.408893908806	-6.3211222222222325
206.9758265685036	-6.288728888888889
206.54273909645556	-6.306277777777772
206.10963149126542	-6.322955555555559
