768.5491804111048	1.6933333333333334
768.1418053541423	1.5644444444444445
767.7344119301292	0.5006666666666731
767.3270001378255	1.999333333333327
766.919569975984	1.608000000000013
766.512121443371	0.760888888888876
766.104654538731	1.1771111111111046
765.6971692608303	1.1493333333333269
765.2896656084283	0.9975555555555427
764.8821435802741	1.6
764.4746031751316	0.41866666666665375
764.0670443917518	1.2080000000000128
763.6594672288965	1.7044444444444444
763.2518716853233	1.1571111111111045
762.8442577597809	1.008888888888889
762.4366254510356	1.021111111111111
762.0289747578362	1.2117777777777843
761.6213056789402	1.4724444444444573
761.2136182131094	1.4624444444444573
760.8059123590926	0.6693333333333269
760.3981881156518	0.10333333333333333
759.9904454815378	0.7077777777777777
759.5826844555062	1.2933333333333332
759.1749050363206	1.5128888888888954
758.7671072227259	0.48822222222221573
758.359291013486	-0.33555555555555555
757.9514564073496	1.819111111111124
757.5436034030721	0.7528888888888954
757.1357319994177	0.18222222222222223
756.7278421951283	0.9233333333333333
756.3199339889704	1.231999999999987
755.9120073796885	1.0973333333333397
755.5040623660421	1.200888888888876
755.096098946789	0.4842222222222093
754.6881171206754	0.4557777777777907
754.2801168864657	1.3988888888888888
753.8720982429043	0.6195555555555621
753.4640611887509	0.6815555555555491
753.0560057227563	1.1571111111111045
752.6479318436759	0.7635555555555685
752.2398395502653	0.022666666666660198
751.831728841273	0.7240000000000064
751.4235997154589	-0.15955555555556203
751.0154521715696	0.49044444444443797
750.6072862083624	1.699555555555562
750.1991018245931	1.3373333333333397
749.7908990190057	1.2935555555555684
749.3826777903645	1.8635555555555685
748.9744381374117	1.5131111111110982
748.5661800589027	1.2455555555555555
748.1579035535971	1.5855555555555556
747.7496086202395	1.0955555555555556
747.3412952575874	-0.07244444444445738
746.9329634643873	1.6942222222222092
746.5246132393926	1.2055555555555555
746.1162445813628	0.7246666666666796
745.7078574890403	1.0193333333333268
745.2994519611847	1.5444444444444445
744.8910279965384	1.8435555555555685
744.4825855938589	0.025999999999993532
744.0741247518993	1.4248888888888824
743.6656454694064	1.6148888888888824
743.2571477451354	1.7477777777777779
742.848631577833	0.47866666666665375
742.4400969662523	1.2719999999999871
742.0315439091466	1.6140000000000065
741.6229724052625	0.9746666666666796
741.2143824533555	0.5622222222222222
740.8057740521698	1.1162222222222287
740.3971472004587	0.6386666666666537
739.9885018969776	1.2364444444444316
739.5798381404666	-0.09199999999998706
739.1711559296853	0.9140000000000065
738.7624552633761	2.766888888888902
738.3537361402944	0.610444444444438
737.9449985591888	0.4822222222222222
737.5362425188041	-0.29599999999999355
737.1274680178976	1.3235555555555685
736.7186750552117	1.0046666666666797
736.3098636294974	0.5324444444444574
735.90103373951	1.3673333333333397
735.4921853839897	0.4251111111111176
735.0833185616918	0.5051111111111176
734.6744332713587	1.3940000000000066
734.2655295117456	-0.45244444444445736
733.8566072815993	0.27688888888890184
733.4476665796664	0.7493333333333269
733.0387074046979	0.4784444444444509
732.6297297554382	0.49644444444443153
732.2207336306385	0.9517777777777843
731.8117190290474	1.028888888888889
731.4026859494096	0.9364444444444315
730.9936343904782	1.120444444444438
730.5845643509933	1.5544444444444445
730.175475829706	1.05733333333334
729.7663688253693	0.9808888888888759
729.3572433367214	0.49333333333333335
728.9480993625175	0.4722222222222222
728.5389369014977	0.4124444444444574
728.129755952411	0.6986666666666538
727.7205565140105	1.9271111111111046
727.3113385850342	1.338000000000013
726.9021021642374	1.6186666666666538
726.4928472503558	1.3546666666666796
726.0835738421472	1.8271111111111047
725.6742819383494	0.7240000000000064
725.2649715377112	0.7275555555555426
724.8556426389815	0.5768888888889018
724.4462952409026	1.1671111111111045
724.0369293422256	1.069555555555562
723.6275449416883	1.4680000000000129
723.2181420380396	1.3862222222222287
722.8087206300328	1.2673333333333399
722.3992807163992	1.3888888888888888
721.9898222958986	1.679333333333327
721.5803453672625	0.4957777777777907
721.1708499292439	1.5946666666666796
720.7613359805896	1.5526666666666602
720.3518035200398	1.0133333333333334
719.9422525463409	0.5888888888888889
719.5326830582355	1.189111111111124
719.1230950544702	0.6531111111110982
718.7134885337939	0.921999999999987
718.3038634949401	0.7075555555555426
717.8942199366641	0.26711111111110464
717.4845578576997	1.0119999999999871
717.0748772567979	0.6026666666666602
716.6651781327031	0.6044444444444445
716.2554604841532	0.37022222222223516
715.8457243098995	1.1115555555555492
715.4359696086776	1.2057777777777907
715.0261963792342	0.679555555555562
714.616404620316	1.030666666666673
714.2065943306587	1.6240000000000065
713.7967655090134	1.9206666666666732
713.386918154116	0.5326666666666602
712.977052264713	0.9662222222222286
712.5671678395512	-0.359555555555562
712.157264877362	0.5613333333333462
711.7473433769006	0.47288888888889535
711.3374033368989	0.8566666666666667
710.9274447561031	0.12777777777777777
710.5174676332601	0.9213333333333462
710.1074719671014	0.7628888888888954
709.6974577563823	1.23
709.2874249998299	1.2866666666666666
708.8773736961951	1.8671111111111047
708.4673038442228	0.6224444444444573
708.057215442644	0.9013333333333463
707.6471084902078	0.6988888888888889
707.2369829856499	1.3057777777777908
706.8268389277149	0.3844444444444444
706.4166763151472	1.1762222222222287
706.0064951466805	1.2851111111111175
705.5962954210615	1.4071111111111045
705.1860771370237	0.9948888888888824
704.775840293314	1.2686666666666537
704.3655848886724	1.4048888888888824
703.9553109218369	0.6275555555555427
703.5450183915499	1.3633333333333333
703.134707296547	0.5464444444444315
702.7243776355753	1.5546666666666795
702.3140294073658	1.779111111111124
701.9036626106632	1.471111111111111
701.4932772442121	1.5731111111110982
701.0828733067416	1.3826666666666603
700.6724507970007	0.6940000000000065
700.2620097137208	0.5640000000000065
699.8515500556443	1.1015555555555492
699.4410718215134	-0.09599999999999353
699.0305750100598	0.4737777777777713
698.6200596200321	0.5677777777777778
698.2095256501597	0.2026666666666602
697.7989730991849	1.913111111111098
697.3884019658501	1.3028888888888954
696.9778122488846	2.467111111111105
696.5672039470371	1.3335555555555685
696.1565770590371	0.678444444444451
695.7459315836269	1.7673333333333399
695.3352675195465	1.9755555555555555
694.9245848655254	0.7731111111110982
694.5138836203122	1.1562222222222287
694.1031637826343	0.7775555555555426
693.692425351234	0.3831111111110982
693.2816683248534	-0.22599999999999354
692.8708927022199	0.43488888888888244
692.46009848208	0.39555555555555555
692.0492856631608	1.969333333333327
691.6384542442048	2.046222222222229
691.2276042239542	0.7131111111110982
690.8167356011342	1.421999999999987
690.4058483744911	0.5084444444444509
689.9949425427545	0.07777777777777778
689.5840181046623	0.008444444444450912
689.1730750589568	-0.12288888888889536
688.7621134043652	-0.7922222222222223
688.3511331396297	1.2537777777777712
687.940134263482	1.640444444444438
687.5291167746599	0.5719999999999871
687.1180806719015	2.300222222222235
686.707025953936	1.5077777777777779
686.2959526195058	0.8673333333333398
685.8848606673403	1.001111111111111
685.4737500961751	0.9068888888889018
685.0626209047527	0.6371111111111046
684.651473091798	1.129555555555562
684.2403066560556	1.0617777777777841
683.8291215962504	1.0059999999999936
683.4179179111203	-0.31400000000000644
683.0066955994079	0.38
682.5954546598334	1.5911111111111111
682.1841950911439	0.7231111111110982
681.7729168920664	1.3113333333333463
681.3616200613344	-0.02022222222223516
680.9503045976883	1.2726666666666602
680.5389704998529	1.639555555555562
680.1276177665706	1.3246666666666795
679.7162463965662	0.91
679.3048563885802	1.2566666666666666
678.893447741346	0.9693333333333268
678.4820204535908	1.2073333333333398
678.0705745240549	0.7951111111111175
677.659109951463	0.1542222222222093
677.2476267345577	1.2759999999999936
676.8361248720615	0.2288888888888889
676.4246043627128	0.5864444444444316
676.013065205247	0.5475555555555426
675.6015073983895	1.2817777777777843
675.18993094088	1.8182222222222157
674.7783358314439	1.0613333333333463
674.3667220688145	0.8880000000000129
673.95508965173	1.3233333333333333
673.5434385789132	1.9353333333333205
673.1317688491064	1.2222222222222223
672.7200804610279	2.049333333333327
672.3083734134182	1.9506666666666732
671.8966477050107	1.2637777777777712
671.4849033345282	0.45711111111110464
671.0731403007111	0.8940000000000065
670.6613586022797	1.2580000000000129
670.2495582379745	1.459333333333327
669.8377392065245	1.8713333333333462
669.4259015066549	2.641999999999987
669.0140451371036	1.4337777777777714
668.6021700965935	1.870222222222235
668.1902763838601	2.3146666666666795
667.7783639976353	2.9853333333333203
667.3664329366418	2.400222222222235
666.9544831996196	0.7977777777777778
666.5425147852873	1.2413333333333463
666.1305276923807	1.6855555555555555
665.7185219196356	1.42
665.3064974657683	0.9697777777777649
664.8944543295212	1.1475555555555426
664.4823925096126	1.0128888888888954
664.0703120047763	0.8764444444444315
663.6582128137437	0.680888888888876
663.24609493524	1.928000000000013
662.8339583679985	0.5217777777777842
662.4218031107423	1.290666666666673
662.0096291622027	1.589555555555562
661.5974365211113	1.383111111111098
661.1852251861908	2.1148888888888826
660.7729951561749	1.3671111111111047
660.3607464297864	0.9582222222222158
659.9484790057548	2.581999999999987
659.5361928828136	1.2826666666666602
659.1238880596833	1.5659999999999936
658.7115645350955	0.40688888888890185
658.2992223077753	0.6755555555555556
657.8868613764497	1.4757777777777907
657.4744817398523	1.5322222222222222
657.062083396704	0.8335555555555685
656.649666345736	1.4251111111111177
656.2372305856691	1.3357777777777906
655.8247761152347	0.5526666666666602
655.4123029331622	1.2231111111110982
654.9998110381722	1.4948888888888825
654.5873004289984	0.7024444444444574
654.174771104357	2.3048888888888825
653.7622230629861	1.191555555555549
653.3496563036018	1.643111111111098
652.9370708249337	1.4266666666666667
652.5244666257131	1.0906666666666731
652.1118437046564	0.9628888888888953
651.6992020604994	1.8864444444444315
651.2865416919583	0.8866666666666667
650.8738625977625	0.9624444444444574
650.4611647766413	1.300444444444438
650.048448227311	1.1257777777777906
649.6357129485075	1.868000000000013
649.222958938947	1.1324444444444575
648.8101861973566	1.1306666666666731
648.3973947224658	0.8771111111111046
647.984584512993	1.9633333333333334
647.5717555676696	1.9431111111110981
647.158907885212	1.7248888888888825
646.7460414643473	1.951555555555549
646.3331563038048	1.949333333333327
645.9202524023008	0.7397777777777649
645.5073297585668	1.0646666666666795
645.0943883713213	0.8337777777777713
644.6814282392871	0.9748888888888825
644.2684493611957	0.7340000000000064
643.8554517357634	0.9077777777777778
643.4424353617173	1.0148888888888825
643.0294002377759	2.0317777777777843
642.6163463626642	1.8902222222222351
642.2032737351115	1.9313333333333462
641.7901823538318	2.4228888888888953
641.3770722175568	0.5293333333333269
640.9639433250006	1.4882222222222157
640.5507956748881	0.2326666666666602
640.1376292659486	0.8640000000000064
639.7244440968942	2.038222222222216
639.3112401664562	1.150444444444438
638.8980174733489	1.5146666666666797
638.4847760162971	1.2464444444444316
638.0715157940282	1.7402222222222352
637.6582368052561	1.1868888888889018
637.244939048708	2.3128888888888954
636.8316225231004	1.2755555555555556
636.418287227158	1.4922222222222221
636.0049331596038	1.5524444444444574
635.5915603191539	1.5631111111110982
635.1781687045379	1.3637777777777713
634.7647583144653	1.1322222222222222
634.3513291476636	1.2817777777777843
633.9378812028574	1.0231111111110982
633.5244144787567	2.000888888888876
633.1109289740931	1.7533333333333334
632.6974246875783	1.488444444444451
632.2839016179374	1.6428888888888953
631.8703597638911	0.7813333333333463
631.4567991241556	1.4362222222222287
631.0432196974559	0.7902222222222351
630.629621482504	1.5893333333333268
630.216004478025	1.1864444444444315
629.8023686827437	0.5184444444444509
629.3887140953677	1.5557777777777908
628.9750407146265	0.6242222222222092
628.5613485392319	1.0922222222222222
628.147637567909	2.2702222222222352
627.7339077993718	1.8937777777777713
627.3201592323411	1.4880000000000129
626.9063918655396	1.6506666666666732
626.4926056976793	0.6475555555555427
626.0788007274851	0.4886666666666537
625.6649769536692	0.4711111111111111
625.251134374952	1.6511111111111112
624.8372729900542	1.040666666666673
624.4233927976921	2.084222222222209
624.0094937965844	1.0453333333333203
623.5955759854471	1.4948888888888825
623.1816393629965	1.9742222222222092
622.7676839279578	1.1922222222222223
622.3537096790408	0.5755555555555556
621.939716614968	1.8659999999999934
621.5257047344518	2.0464444444444316
621.1116740362103	1.9373333333333398
620.6976245189643	2.811555555555549
620.2835561814256	1.4013333333333462
619.8694690223195	0.5855555555555556
619.4553630403514	0.5475555555555426
619.0412382342416	0.620444444444438
618.6270946027155	0.6580000000000129
618.2129321444761	0.24400000000000646
617.7987508582486	1.1666666666666667
617.3845507427448	1.2382222222222157
616.9703317966788	1.551111111111111
616.5560940187758	0.6366666666666667
616.1418374077409	1.6640000000000064
615.7275619622974	1.4948888888888825
615.3132676811547	0.748000000000013
614.8989545630293	0.7691111111111241
614.4846226066439	1.0762222222222286
614.0702718107042	1.2815555555555491
613.6559021739305	1.028000000000013
613.2415136950349	1.7048888888888825
612.8271063727316	0.9933333333333333
612.4126802057413	0.8206666666666731
611.9982351927714	1.7248888888888825
611.5837713325427	1.8828888888888953
611.1692886237629	1.309111111111124
610.7547870651481	1.0637777777777713
610.3402666554169	2.088888888888889
609.9257273932792	0.2073333333333398
609.5111692774511	1.3482222222222158
609.0965923066425	1.5817777777777842
608.6819964795696	1.5364444444444314
608.267381794949	2.0542222222222093
607.852748251488	1.0442222222222093
607.4380958479052	2.021333333333346
607.0234245829083	1.1377777777777778
606.6087344552135	2.057777777777778
606.1940254635371	0.8077777777777778
605.7792976065847	1.9088888888888889
605.3645508830767	0.8077777777777778
604.9497852917189	1.230444444444438
604.5350008312295	1.7719999999999871
604.1201975003139	1.500888888888876
603.7053752976888	0.8573333333333398
603.2905342220679	0.8024444444444574
602.875674272159	1.8642222222222093
602.4607954466808	1.3328888888888955
602.045897744334	1.3464444444444315
601.6309811638374	1.3746666666666796
601.2160457039072	1.5426666666666602
600.8010913632422	1.67
600.3861181405678	1.0628888888888954
599.9711260345824	1.249111111111124
599.5561150440028	1.5635555555555685
599.1410851675449	1.6753333333333205
598.7260364039103	1.1611111111111112
598.310968751817	1.7753333333333203
597.8958822099685	1.4640000000000064
597.4807767770811	0.848000000000013
597.0656524518646	0.7059999999999935
596.6505092330244	0.8271111111111047
596.2353471192791	1.3186666666666538
595.8201661093298	-0.1162222222222287
595.4049662018905	1.1982222222222159
594.9897473956734	1.2077777777777778
594.5745096893836	1.3926666666666603
594.1592530817335	2.108222222222216
593.7439775714304	1.4428888888888953
593.328683157182	1.5144444444444445
592.9133698377069	1.633111111111098
592.4980376117019	1.0715555555555492
592.0826864778852	0.9073333333333398
591.6673164349583	2.0459999999999936
591.2519274816328	1.06
590.8365196166231	1.179111111111124
590.4210928386259	2.0937777777777713
590.0056471463619	1.119111111111124
589.5901825385299	0.7128888888888953
589.1746990138421	1.628000000000013
588.7591965710102	1.9188888888888889
588.3436752087334	1.4
587.9281349257278	1.3575555555555425
587.5125757206926	1.5653333333333204
587.0969975923396	1.8140000000000065
586.6814005393828	0.6028888888888954
586.2657845605171	1.4222222222222223
585.8501496544609	0.4688888888888889
585.4344958199108	1.6711111111111112
585.0188230555813	1.393111111111098
584.6031313601796	0.3759999999999935
584.1874207324072	0.6311111111111111
583.7716911709758	1.4453333333333205
583.3559426745845	0.6682222222222157
582.9401752419452	0.09066666666667314
582.5243888717699	-0.17888888888888888
582.108583562751	0.5322222222222223
581.6927593136072	0.9044444444444445
581.276916123035	0.8188888888888889
580.8610539897443	0.9155555555555556
580.4451729124428	0.911999999999987
580.0292728898315	1.140444444444438
579.6133539206203	1.3351111111111176
579.1974160035103	1.048000000000013
578.7814591372113	1.0040000000000064
578.3654833204223	1.4551111111111177
577.9494885518508	1.3933333333333333
577.5334748302067	1.0108888888888758
577.1174421541846	0.708000000000013
576.7013905225008	0.7762222222222287
576.28531993385	1.4551111111111177
575.8692303869396	0.6157777777777907
575.4531218804776	1.021555555555549
575.0369944131626	1.3022222222222222
574.6208479837046	0.8842222222222093
574.2046825907981	1.4480000000000128
573.7884982331552	0.6051111111111176
573.3722949094791	1.0275555555555427
572.9560726184689	0.9897777777777649
572.539831358832	0.6448888888888824
572.1235711292675	1.498888888888889
571.7072919284808	0.5951111111111176
571.2909937551797	0.6548888888888824
570.8746766080585	0.3071111111111046
570.4583404858273	1.0357777777777908
570.0419853871806	0.678444444444451
569.6256113108282	0.7713333333333463
569.2092182554734	1.7124444444444573
568.7928062198108	0.009777777777764843
568.3763752025502	1.5073333333333399
567.9599252023885	0.3244444444444444
567.543456218031	1.7064444444444316
567.126968248179	1.0517777777777841
566.7104612915313	1.8528888888888952
566.2939353467976	0.8102222222222352
565.8773904126664	0.8515555555555491
565.4608264878493	1.428000000000013
565.0442435710477	0.9062222222222287
564.6276416609538	1.270666666666673
564.2110207562797	1.250666666666673
563.7943808557179	0.09533333333332039
563.3777219579716	1.240888888888876
562.9610440617463	1.4651111111111175
562.5443471657366	1.1746666666666796
562.1276312686458	1.9024444444444575
561.7108963691708	0.8264444444444315
561.2941424660146	1.4406666666666732
560.8773695578808	0.25400000000000644
560.4605776434596	1.1955555555555555
560.0437667214629	1.8371111111111047
559.6269367905788	0.25177777777778426
559.210087849515	0.5588888888888889
558.7932198969705	0.6242222222222092
558.3763329316378	1.1835555555555686
557.9594269522264	0.6659999999999935
557.5425019574247	0.9577777777777777
557.125557945938	1.1426666666666603
556.7085949164676	1.2559999999999936
556.2916128677036	0.599111111111124
555.8746117983559	2.3217777777777844
555.4575917071105	0.969111111111124
555.0405525926749	1.7722222222222221
554.6234944537481	1.1502222222222351
554.2064172890205	0.8726666666666602
553.7893210971995	1.2940000000000065
553.3722058769733	1.21
552.9550716270476	1.0086666666666537
552.5379183461146	1.8924444444444575
552.1207460328753	1.3240000000000065
551.7035546860291	1.680444444444438
551.2863443042659	0.5588888888888889
550.8691148862935	0.7255555555555555
550.4518664307977	0.7777777777777778
550.034598936482	1.7908888888888759
549.6173124020431	0.8344444444444444
549.2000068261756	1.4517777777777843
548.7826822075806	0.5777777777777777
548.3653385449485	1.340888888888876
547.947975836976	-0.0033333333333333335
547.5305940823685	1.2271111111111046
547.1131932798098	0.9437777777777713
546.6957734280055	1.3262222222222286
546.2783345256457	1.1026666666666602
545.8608765714274	0.7022222222222222
545.4433995640516	0.38066666666667315
545.0259035022042	1.3024444444444574
544.6083883845907	1.6466666666666667
544.1908542098972	0.9357777777777907
543.7733009768225	1.1451111111111176
543.3557286840677	1.498888888888889
542.9381373303188	1.2135555555555686
542.5205269142768	0.7648888888888824
542.1028974346301	1.6093333333333268
541.6852488900796	1.5342222222222093
541.2675812793178	1.4951111111111175
540.8498946010372	0.9313333333333462
540.4321888539369	1.8942222222222094
540.0144640367046	1.1322222222222222
539.5967201480374	1.2777777777777777
539.178957186632	1.4248888888888824
538.7611751511765	1.9637777777777714
538.34337404037	1.460444444444438
537.9255538529005	2.223333333333333
537.5077145874648	2.181999999999987
537.0898562427574	2.2340000000000066
536.6719788174688	2.119777777777765
536.2540823102956	1.9128888888888953
535.8361667199239	1.341999999999987
535.4182320450526	2.191999999999987
535.0002782843742	0.29555555555555557
534.5823054365788	1.2273333333333398
534.1643135003612	1.2106666666666732
533.7463024744095	0.2442222222222093
533.3282723574183	1.5822222222222222
532.9102231480844	0.6082222222222158
532.4921548450936	1.6586666666666536
532.0740674471408	1.2353333333333203
531.6559609529138	1.4557777777777907
531.2378353611075	2.257111111111105
530.8196906704163	1.3946666666666796
530.4015268795264	1.9066666666666667
529.9833439871321	1.2642222222222093
529.5651419919218	2.0522222222222224
529.1469208925878	1.8057777777777908
528.7286806878247	1.9086666666666536
528.3104213763164	1.7851111111111175
527.8921429567617	1.4153333333333205
527.4738454278403	1.200888888888876
527.0555287882552	2.131111111111111
526.637193036686	2.0042222222222095
526.2188381718272	1.5882222222222158
525.8004641923736	1.9744444444444444
525.3820710970047	1.5428888888888954
524.9636588844212	1.7222222222222223
524.5452275533052	2.0235555555555687
524.1267771023488	1.7348888888888825
523.7083075302446	1.850888888888876
523.2898188356743	2.811111111111111
522.8713110173368	2.0984444444444508
522.4527840739113	2.680666666666673
522.0342380040928	2.938222222222216
521.6156728065735	3.279333333333327
521.1970884800329	2.2637777777777712
520.7784850231678	2.428444444444451
520.3598624346599	2.6313333333333464
519.9412207132015	2.1222222222222222
519.522559857483	2.130888888888876
519.1038798661881	3.9464444444444315
518.6851807380093	2.8355555555555556
518.2664624716282	2.271333333333346
517.8477250657371	2.8848888888888826
517.4289685190266	3.8524444444444574
517.0101928301759	3.2328888888888954
516.5913979978819	2.8642222222222093
516.1725840208239	2.5235555555555687
515.7537508976902	3.0546666666666797
515.3348986271753	3.0853333333333204
514.9160272079566	2.8768888888889017
514.4971366387285	4.276666666666666
514.0782269181728	2.855777777777791
513.6592980449755	3.9064444444444315
513.240350017831	4.427111111111104
512.8213828354145	3.751333333333346
512.4023964964229	4.545777777777791
511.9833909995311	3.6668888888889017
511.56436634343385	4.531333333333346
511.1453225268149	5.085777777777791
510.72625954835803	5.341333333333346
510.30717740675357	5.426222222222228
509.88807610067875	4.833111111111098
509.468955628826	5.380666666666673
509.04981598988127	6.087555555555543
508.6306571825219	7.619777777777765
508.2114792054424	7.5940000000000065
507.79228205732016	7.128888888888889
507.3730657368433	8.011999999999986
506.9538302426998	8.858444444444451
506.534575573567	9.761777777777784
506.11530172813525	8.76155555555555
505.69600870508606	9.614888888888883
505.2766965031011	10.19111111111111
504.8573651208728	10.797777777777778
504.43801455707415	10.99155555555555
504.01864481040184	12.53733333333334
503.59925587952677	13.270222222222236
503.17984776314125	13.466666666666667
502.7604204599226	14.848888888888888
502.34097396855685	15.100222222222236
501.921508287732	15.068222222222216
501.50202341612106	14.98466666666668
501.0825193524186	14.209111111111124
500.6629960952976	15.15266666666666
500.243453643444	15.332444444444457
499.8238919955459	15.358666666666654
499.40431115027627	14.54422222222221
498.98471110632755	16.34266666666666
498.5650918623726	15.188888888888888
498.14545341709743	14.445999999999994
497.72579576918804	14.068666666666653
497.30611891731945	14.650222222222235
496.8864228601798	13.928666666666654
496.4667075964442	13.87888888888889
496.0469731247986	13.110222222222236
495.6272194439246	10.969333333333326
495.20744655250166	11.626666666666667
494.78765444921356	11.716888888888901
494.3678431327354	10.883555555555569
493.9480126017531	10.098666666666654
493.5281628549505	9.88888888888889
493.1082938910004	8.489111111111123
492.6884057085911	9.043111111111099
492.26849830639543	7.944444444444445
491.84857168309713	8.39844444444445
491.4286258373801	7.472888888888895
491.00866076791937	7.4859999999999935
490.5886764733987	7.64466666666668
490.16867295249324	6.39
489.74865020388455	6.42533333333332
489.32860822625867	5.81466666666668
488.9085470182841	5.941555555555549
488.488466578649	6.173111111111099
488.0683669060263	5.283555555555568
487.64824799909763	4.894444444444445
487.2281098565467	5.480222222222235
486.8079524770444	4.812888888888895
486.3877758592766	3.9457777777777907
485.9675800019162	4.410888888888876
485.5473649036427	4.3897777777777645
485.1271305631399	4.613111111111098
484.70687697907846	4.335555555555556
484.28660415014224	3.924888888888882
483.86631207500636	4.14533333333332
483.4460007523481	3.5559999999999934
483.025670180849	4.901999999999987
482.605320359182	3.68
482.1849512860309	3.2213333333333463
481.76456296006654	3.1402222222222353
481.3441553799683	3.7751111111111175
480.92372854441777	4.428666666666654
480.5032824520836	3.4726666666666604
480.0828171016517	3.488444444444451
479.66233249179066	4.524444444444445
479.24182862118215	3.88266666666666
478.8213054885055	3.7146666666666794
478.40076309242943	3.731777777777784
477.9802014316377	3.449777777777765
477.55962050479883	3.189555555555562
477.13902031059666	2.4173333333333398
476.7184008477019	3.2842222222222093
476.29776211478975	3.411999999999987
475.87710411054394	2.559555555555562
475.4564268336309	2.6071111111111045
475.03573028273223	1.8922222222222222
474.6150144565166	2.489555555555562
474.1942793536655	2.0780000000000127
473.7735249728541	2.4044444444444446
473.3527513127531	2.4642222222222094
472.9319583720421	2.216888888888902
472.51114614938956	2.2444444444444445
472.090314643475	3.077777777777778
471.66946385297564	2.3859999999999935
471.2485937765579	1.5042222222222092
470.8277044129035	1.5826666666666602
470.4067957606809	3.159333333333327
469.9858678185653	2.1582222222222156
469.5649205852361	1.5959999999999934
469.14395405935755	1.990444444444438
468.7229682396156	2.19
468.30196312467024	2.6340000000000066
467.880938713203	2.939111111111124
467.4598950038891	2.5255555555555556
467.0388319953948	2.3480000000000127
466.6177496863997	1.7873333333333399
466.19664807557007	1.0937777777777713
465.77552716158334	1.8848888888888824
465.35438694311455	2.1
464.933227418828	1.6980000000000128
464.5120485874074	1.4028888888888953
464.09085044751265	2.129111111111124
463.6696329978233	2.566222222222229
463.24839623701223	2.4335555555555684
462.8271401637481	1.9166666666666667
462.4058647767059	1.56
461.98457007455215	1.8288888888888888
461.5632560559619	2.5
461.14192271961036	1.6428888888888953
460.7205700641616	2.674888888888882
460.2991980882931	1.3548888888888824
459.8778067906712	2.4955555555555557
459.45639616996664	2.2071111111111046
459.0349662248589	1.8786666666666538
458.6135169540057	2.4428888888888953
458.1920483560887	2.21
457.77056042977216	1.6326666666666603
457.3490531737268	1.5197777777777648
456.9275265866278	1.8848888888888824
456.50598066713934	1.9928888888888954
456.0844154139366	1.8984444444444508
455.6628308256816	2.1159999999999934
455.2412269010517	2.3840000000000066
454.8196036387175	1.289111111111124
454.39796103734136	1.7282222222222157
453.9762990956003	2.296666666666667
453.55461781215655	1.189333333333327
453.13291718568524	1.4088888888888889
452.71119721484837	1.2673333333333399
452.2894578983211	2.280222222222235
451.867699234772	2.3173333333333397
451.4459212228653	1.5368888888889018
451.0241238612762	1.5813333333333464
450.6023071486668	0.8653333333333204
450.1804710837056	1.111999999999987
449.75861566506774	1.6455555555555557
449.33674089141317	1.879777777777765
448.914846761417	2.1355555555555554
448.4929332737391	1.7364444444444316
448.0710004270503	0.949555555555562
447.6490482200257	1.49
447.22707665132083	1.4077777777777778
446.8050857196109	1.5773333333333397
446.3830754235579	1.586888888888902
445.9610457618326	1.2164444444444316
445.5389967331037	0.9635555555555685
445.11692833603104	0.7575555555555427
444.69484056929196	1.1788888888888889
444.2727334315398	1.7071111111111046
443.8506069214497	1.8551111111111176
443.4284610376903	1.8662222222222287
443.0062957789193	1.891999999999987
442.5841111438118	1.1217777777777842
442.1619071310256	0.7364444444444315
441.7396837392293	1.3331111111110983
441.31744096709366	1.1837777777777714
440.8951788132764	1.2084444444444509
440.4728972764505	1.439111111111124
440.05059635527374	1.9680000000000129
439.6282760484168	1.0628888888888954
439.2059363545462	1.2084444444444509
438.7835772723197	1.2040000000000064
438.36119880041014	1.0333333333333334
437.9388009374753	0.9715555555555491
437.5163836821839	1.331999999999987
437.09394703320226	1.2808888888888759
436.67149098918816	1.6968888888889018
436.2490155488145	1.150444444444438
435.82652071073693	1.43266666666666
435.40400647362407	1.94
434.9814728361423	1.228444444444451
434.5589197969472	0.8595555555555621
434.1363473547139	1.0024444444444573
433.71375550809364	1.6744444444444444
433.29114425575506	1.5611111111111111
432.8685135963667	1.7959999999999936
432.4458635285842	0.5519999999999871
432.02319405107613	2.2088888888888887
431.6005051625002	1.1668888888889017
431.1777968615208	1.99
430.75506914680426	0.7577777777777778
430.3323220170084	1.9680000000000129
429.9095554707996	1.5146666666666797
429.4867695068356	1.3651111111111176
429.06396412378075	1.7133333333333334
428.6411393203014	1.9222222222222223
428.2182950950532	1.0753333333333204
427.7954314467025	1.0897777777777649
427.372548373905	1.9966666666666666
426.94964587532917	2.010888888888876
426.5267239496307	1.8564444444444315
426.10378259547383	1.9566666666666668
425.680821811525	1.3431111111110983
425.25784159643325	1.1855555555555555
424.83484194887154	2.3548888888888824
424.411822867489	2.001777777777784
423.9887843509541	1.7197777777777647
423.56572639793126	1.3988888888888888
423.1426490070695	1.5824444444444574
422.71955217703953	0.9544444444444444
422.2964359064949	1.5268888888889018
421.8733001940954	1.250888888888876
421.45014503850973	2.188222222222216
421.0269704383869	2.428888888888889
420.60377639239556	2.2946666666666795
420.18056289918695	1.278000000000013
419.7573299574231	2.1757777777777907
419.3340775657706	1.9095555555555621
418.91080572287837	1.9277777777777778
418.4875144274151	1.4826666666666601
418.06420367802986	2.159777777777765
417.6408734733869	1.4273333333333398
417.21752381215043	2.1366666666666667
416.7941546929653	2.489111111111124
416.3707661145044	2.5535555555555685
415.9473580754146	2.201555555555549
415.5239305743603	2.78
415.1004836100013	1.430888888888876
414.67701718098886	1.9217777777777842
414.2535312859894	1.2653333333333203
413.83002592364994	1.6353333333333204
413.40650109263686	1.7048888888888825
412.98295679160566	1.891999999999987
412.55939301921205	1.3137777777777713
412.1358097741159	1.5959999999999934
411.7122070549707	1.328000000000013
411.28858486043407	1.8406666666666731
410.8649431891682	0.8784444444444509
410.44128203982217	1.7444444444444445
410.0176014110602	1.2877777777777777
409.5939013015293	1.929333333333327
409.1701817098936	0.3668888888889018
408.74644263481093	1.0155555555555555
408.32268407492825	1.0542222222222093
407.8989060289119	2.4048888888888826
407.47510849540885	1.6224444444444575
407.05129147307906	1.7131111111110982
406.6274549605823	2.5342222222222093
406.2035989565657	2.077777777777778
405.77972345969124	2.5780000000000127
405.3558284686102	0.7824444444444574
404.9319139819781	2.213111111111098
404.5079799984549	2.148888888888889
404.0840265166876	2.291777777777784
403.6600535353382	1.641999999999987
403.2360610530558	2.47
402.81204906849604	1.6806666666666732
402.38801758032093	0.9726666666666602
401.9639665871731	3.139111111111124
401.5398960877147	4.4162222222222285
401.1158060805947	1.9453333333333205
400.6916965644731	2.342444444444457
400.2675675379968	1.2457777777777908
399.8434189998214	2.230888888888876
399.41925094860676	1.7580000000000129
398.9950633829977	2.1693333333333267
398.57085630165415	0.8931111111110982
398.14662970322297	2.38466666666668
397.7223835863598	1.6462222222222287
397.2981179497224	2.069333333333327
396.87383279195546	2.5059999999999936
396.4495281117211	2.4948888888888825
396.0252039076598	2.1297777777777647
395.6008601784314	1.319555555555562
395.1764969226915	2.398666666666654
394.7521141390848	1.1022222222222222
394.3277118262714	1.528444444444451
393.9032899828916	1.7997777777777648
393.4788486076074	2.1328888888888953
393.05438769906806	1.5775555555555427
392.62990725592255	1.529555555555562
392.20540727682646	1.9166666666666667
391.7808877604268	1.8813333333333462
391.3563487053747	1.4833333333333334
390.93179011032805	1.663111111111098
390.5072119739293	1.3044444444444445
390.0826142948363	2.781555555555549
389.65799707169157	2.0002222222222352
389.23336030315073	1.5548888888888823
388.80870398786715	1.4075555555555426
388.38402812448567	0.7655555555555555
387.95933271166183	1.0937777777777713
387.5346177480382	1.8673333333333397
387.1098832322682	1.4111111111111112
386.68512916300745	1.4333333333333333
386.2603555388963	0.48444444444444446
385.83556235859476	1.761111111111111
385.410749620741	1.9044444444444444
384.9859173239885	1.0475555555555427
384.5610654669928	1.9257777777777907
384.13619404839216	1.1517777777777842
383.7113030668465	1.2855555555555556
383.28639252099407	1.0953333333333204
382.86146240949046	1.6028888888888952
382.4365127309847	1.531111111111111
382.0115434841195	1.4562222222222287
381.58655466755033	1.1188888888888888
381.16154627991983	1.6942222222222092
380.73651831987706	1.1253333333333204
380.31147078607324	1.7644444444444445
379.886403677151	1.5273333333333399
379.46131699176595	2.608666666666654
379.03621072855407	2.1357777777777907
378.61108488617106	1.1368888888889017
378.1859394632681	1.6417777777777842
377.76077445848125	1.8597777777777649
377.3355898704662	1.3659999999999934
376.91038569786326	0.6382222222222158
376.4851619393237	1.5137777777777712
376.0599185934966	0.3742222222222093
375.6346556590224	1.5768888888889019
375.20937313455454	1.998444444444451
374.78407101873125	1.8313333333333464
374.3587493102059	1.3375555555555427
373.93340800761894	1.7766666666666666
373.5080471096172	0.39222222222222225
373.0826666148543	1.778000000000013
372.657266521964	1.04
372.23184682960186	1.8524444444444574
371.80640753640625	1.811999999999987
371.3809486410261	1.5928888888888955
370.9554701421085	1.6451111111111176
370.52997203829153	2.143777777777771
370.1044543282287	1.2535555555555684
369.6789170105582	1.856888888888902
369.253360083927	2.148444444444451
368.827783546982	2.092444444444457
368.40218739836365	0.5833333333333334
367.97657163672307	2.2244444444444444
367.5509362606943	2.580444444444438
367.12528126892636	1.879777777777765
366.69960666006835	2.268666666666654
366.27391243275423	2.1528888888888953
365.84819858563947	2.4613333333333465
365.42246511735374	1.9366666666666668
364.99671202655037	1.239555555555562
364.5709393118742	1.1417777777777842
364.1451469719591	2.2148888888888822
363.71933500545845	1.5571111111111047
363.29350341100405	1.7557777777777908
362.86765218724713	1.550444444444438
362.4417813328324	2.2497777777777648
362.01589084639386	1.879111111111124
361.5899807265805	1.2855555555555556
361.1640509720306	1.3342222222222093
360.73810158138673	2.1340000000000066
360.312132553298	1.9259999999999935
359.8861438863961	1.081999999999987
359.46013557933014	2.07
359.0341076307362	2.698444444444451
358.60806003926115	1.9037777777777714
358.1819928035455	1.8304444444444379
357.7559059222252	1.6766666666666667
357.32979939395165	2.4415555555555493
356.90367321735425	1.9
356.47752739108006	2.220666666666673
356.0513619137737	2.9522222222222223
355.62517678406704	2.0762222222222286
355.1989720006112	1.7424444444444573
354.7727475620337	1.279555555555562
354.34650346698356	2.322888888888895
353.92023971410333	1.3951111111111176
353.49395630202486	1.4324444444444573
353.0676532293949	2.0424444444444574
352.6413304948475	0.8313333333333462
352.2149880970252	1.1959999999999935
351.7886260345727	1.2553333333333203
351.36224430611963	2.5346666666666797
350.93584291031505	1.9864444444444316
350.5094218457885	1.7435555555555684
350.0829811111891	0.9148888888888824
349.6565207051442	1.4735555555555684
349.23004062630076	1.5457777777777908
348.8035408733014	1.5873333333333397
348.37702144477345	1.18266666666666
347.9504823393638	1.2822222222222222
347.5239235557065	2.0742222222222093
347.09734509243964	1.3844444444444444
346.6707469482059	1.8662222222222287
346.24412912163905	1.3315555555555492
345.81749161137964	2.492888888888895
345.39083441605936	2.099333333333327
344.9641575343208	1.9953333333333203
344.5374609648065	2.05266666666666
344.1107447061417	2.2457777777777905
343.6840087569755	2.1268888888889017
343.2572531159353	2.2306666666666732
342.8304777816616	1.728888888888889
342.4036827527946	1.6564444444444315
341.97686802796625	2.341111111111111
341.55003360581685	1.9468888888889018
341.12317948497815	1.7957777777777908
340.69630566408836	2.118888888888889
340.26941214179016	2.431111111111111
339.8424989167087	1.2924444444444574
339.41556598748866	1.3037777777777713
338.9886133527598	2.4344444444444444
338.5616410111602	2.2759999999999936
338.13464896133036	0.9451111111111176
337.70763720189547	2.091555555555549
337.28060573150026	1.5359999999999936
336.85355454877214	2.6555555555555554
336.4264836523516	1.5397777777777648
335.9993930408746	2.4517777777777843
335.5722827129686	1.4648888888888825
335.14515266727835	1.4053333333333204
334.7180029024291	1.8646666666666796
334.29083341705683	2.0855555555555556
333.8636442098042	1.6135555555555685
333.43643527929646	2.5459999999999936
333.0092066241718	2.370444444444438
332.5819582430598	2.4637777777777714
332.15469013459864	1.836888888888902
331.7274022974224	2.0786666666666536
331.3000947301604	2.029333333333327
330.8727674314533	2.026222222222229
330.44542039992405	2.5648888888888823
330.01805363421084	2.1137777777777713
329.59066713295203	1.7757777777777908
329.16326089477275	1.8266666666666667
328.7358349183113	2.031555555555549
328.30838920219503	2.6513333333333464
327.8809237450579	1.921999999999987
327.4534385455381	1.8557777777777906
327.0259336022609	1.2084444444444509
326.5984089138624	2.0668888888889017
326.1708644789699	1.9542222222222092
325.7433002962196	2.283111111111098
325.31571636424536	1.6366666666666667
324.88811268167234	2.553111111111098
324.4604892471388	1.8015555555555491
324.03284605927007	1.6877777777777778
323.60518311670216	1.5735555555555685
323.1775004180603	3.263111111111098
322.74979796198056	2.1582222222222156
322.32207574709685	2.241111111111111
321.89433377203005	2.9335555555555684
321.4665720354206	2.528000000000013
321.03879053589156	2.289555555555562
320.61098927207684	2.0828888888888955
320.1831682426103	2.68733333333334
319.75532744611286	2.5586666666666535
319.327466881225	2.2144444444444447
318.8995865465675	2.170444444444438
318.4716864407743	1.3264444444444314
318.0437665624772	2.0255555555555556
317.61582691030134	2.0633333333333335
317.1878674828807	2.6911111111111112
316.7598882788383	1.8444444444444446
316.3318892968059	1.1242222222222094
315.90387053541735	3.010666666666673
315.47583199329364	2.590666666666673
315.04777366907297	2.2453333333333205
314.6196955613719	1.7919999999999872
314.19159766882643	2.8253333333333206
313.7634799900684	2.4082222222222156
313.3353425237165	1.430888888888876
312.9071852684068	2.1664444444444313
312.4790082227624	2.0073333333333396
312.0508113854106	2.148666666666654
311.6225947549876	2.791333333333346
311.1943583301098	1.9235555555555686
310.76610210941345	2.0451111111111175
310.33782609151933	2.838666666666654
309.9095302750549	2.970888888888876
309.4812146586562	3.5464444444444316
309.0528792409398	2.0473333333333397
308.6245240205396	2.7471111111111046
308.1961489960765	2.81266666666666
307.7677541661779	2.7746666666666795
307.3393395294777	2.2684444444444507
306.9109050845924	2.1786666666666537
306.48245083015604	1.9284444444444508
306.0539767647851	2.638000000000013
305.6254828871156	2.7175555555555424
305.1969691957707	2.6175555555555428
304.76843568937124	3.4411111111111112
304.33988236654903	2.72
303.9113092259248	2.339333333333327
303.482716266124	2.673111111111098
303.05410348577817	2.7964444444444316
302.625470883504	2.821999999999987
302.19681845793315	2.5044444444444443
301.7681462076844	1.6524444444444575
301.33945413138514	2.8382222222222158
300.91074222766275	2.4257777777777907
300.4820104951359	3.6697777777777647
300.05325893243645	2.7864444444444314
299.6244875381809	3.051999999999987
299.1956963109988	2.9159999999999937
298.7668852495089	3.3859999999999935
298.3380543523364	2.799333333333327
297.9092036181131	2.5411111111111113
297.480333045449	3.2497777777777648
297.0514426329802	2.1977777777777776
296.6225323793189	2.8506666666666733
296.19360228309466	2.6233333333333335
295.76465234293056	3.2946666666666795
295.3356825574475	3.046666666666667
294.9066929252707	2.6182222222222156
294.47768344501674	3.350444444444438
294.048654115313	3.1068888888889017
293.6196049347869	4.134888888888883
293.19053590204845	3.4057777777777907
292.7614470157316	3.5833333333333335
292.33233827444855	3.52
291.90320967682675	2.560888888888876
291.47406122148914	3.5253333333333203
291.04489290705243	3.133111111111098
290.61570473214385	2.941999999999987
290.18649669537797	2.4675555555555424
289.7572687953799	3.330444444444438
289.32802103077495	2.8344444444444443
288.8987534001752	2.719555555555562
288.46946590221046	3.3071111111111047
288.04015853549055	3.9662222222222288
287.61083129864517	2.7653333333333205
287.1814841902951	2.649111111111124
286.7521172090527	2.678000000000013
286.32273035354746	3.4066666666666667
285.8933236223916	2.8151111111111176
285.46389701420827	3.7582222222222157
285.0344505276226	2.91
284.6049841612446	3.0442222222222095
284.1754979137018	3.2066666666666666
283.74599178360637	2.9635555555555686
283.31646576958354	2.820666666666673
282.88691987025203	2.8953333333333204
282.4573540842262	3.173111111111098
282.0277684101335	2.0371111111111047
281.5981628465818	3.0844444444444443
281.1685373921963	2.532888888888895
280.738892045598	3.090222222222235
280.3092268053968	3.032888888888895
279.87954167022235	2.487111111111105
279.44983663868254	3.1808888888888758
279.0201117093983	3.199777777777765
278.5903668809926	3.6935555555555686
278.16060215207557	2.859555555555562
277.73081752127234	2.920222222222235
277.30101298719313	2.6848888888888824
276.8711885484587	3.1028888888888955
276.44134420368994	2.2088888888888887
276.011479951497	3.4131111111110983
275.58159579050505	3.2753333333333203
275.15169171932195	3.4664444444444316
274.72176773656867	3.65
274.291823840866	3.0766666666666667
273.86186003082196	2.0984444444444508
273.4318763050617	2.8744444444444444
273.0018726621931	2.680444444444438
272.57184910083924	3.207777777777778
272.1418056196101	2.3686666666666536
271.71174221712675	2.5855555555555556
271.2816588920034	2.190222222222235
270.85155564285236	2.49
270.4214324682967	2.6553333333333202
269.9912893669421	2.419555555555562
269.5611263374073	2.7475555555555586
269.13094337831535	2.286888888888886
268.7007404882677	2.5406666666666733
268.27051766589165	2.5355555555555553
267.84027490979076	2.80266666666666
267.410012218586	2.0064444444444476
266.97972959089384	1.5553333333333366
266.54942702532225	1.5377777777777777
266.1191045204921	1.759555555555562
265.6887620750112	1.6424444444444413
265.2583996874962	1.681111111111111
264.82801735656363	1.6048888888888824
264.3976150808213	1.2777777777777777
263.96719285889026	1.1057777777777746
263.5367506893761	0.8159999999999935
263.1062885708954	1.2073333333333398
262.67580650206475	0.7457777777777745
262.2453044814899	0.7413333333333301
261.8147825077938	0.7153333333333366
261.38424057957786	0.6486666666666699
260.9536786954609	0.5979999999999968
260.52309685405726	0.45400000000000645
260.09249505397474	0.4588888888888889
259.66187329383007	0.4464444444444477
259.23123157223097	0.13799999999999676
258.8005698877897	0.22688888888888564
258.36988823912293	0.20044444444443799
257.9391866248384	0.2913333333333301
257.5084650435506	-0.007333333333339801
257.07772349386516	0.06844444444445091
256.64696197439656	-0.08933333333332687
256.21618048376126	0.3288888888888889
255.78537902056289	-0.1213333333333301
255.35455758341797	0.33555555555555555
254.92371617093224	0.38555555555555554
254.49285478171788	0.44311111111111434
254.0619734143915	0.14400000000000646
253.63107206755444	0.35288888888889536
253.20015073982543	0.2526666666666602
252.76920942980587	0.20200000000000323
252.33824813611014	-0.11422222222222546
251.90726685735262	0.13400000000000648
251.4762655921347	-0.08644444444444768
251.0452443390751	-0.10511111111111758
250.61420309677302	-0.04022222222221899
250.18314186384507	0.26200000000000323
249.75206063890124	0.011777777777784245
249.32095942054727	-0.01644444444444768
248.8898382073954	-0.19088888888889213
248.45869699804697	-0.03666666666666667
248.0275357911229	0.10444444444444445
247.59635458521805	0.08177777777777616
247.16515337895117	0.061333333333330096
246.73393217093013	0.04799999999999677
246.30269095975632	0.08911111111110788
245.87142974404628	-0.01888888888888889
245.44014852239923	-0.03777777777777778
245.00884729342954	0.03022222222221899
244.57752605574512	-0.006888888888885655
244.14618480794954	-0.08355555555555232
243.71482354865495	0.012888888888887272
243.2834422764628	0.05088888888889212
242.8520409899831	-0.04911111111110788
242.42061968782593	-0.016888888888885654
241.98917836859482	-0.002888888888887272
241.55771703089982	0.08399999999999838
241.12623567334015	0.05066666666666505
240.69473429453018	0.0348888888888905
240.26321289307566	0.003111111111114345
239.83167146757796	0.05399999999999838
239.40011001665147	-0.06888888888888889
238.96852853889104	0.07888888888888888
238.53692703291108	-0.04377777777777939
238.1053054973173	0.04711111111111273
237.6736639307089	0.08333333333333333
237.2420023317003	0.0786666666666699
236.81032069888852	0.02244444444444121
236.37861903088142	0.037999999999996766
235.94689732628913	-0.06066666666666505
235.5151555837108	-0.036888888888885654
235.08339380175647	-0.0037777777777793947
234.65161197902324	0.06911111111110788
234.21981011412112	0.06955555555555394
233.787988205658	-0.09688888888888565
233.35614625222874	-0.028888888888888888
232.92428425244776	-0.05444444444444444
232.49240220490995	0.04266666666666828
232.0605001082253	-0.09488888888889051
231.62857796099743	0.0513333333333301
231.19663576182765	-0.046000000000001616
230.7646735093239	-0.05022222222221899
230.332691202081	-0.04155555555555717
229.90068883870907	-0.006222222222220605
229.46866641781375	0.018444444444442827
229.03662393799	0.007555555555558789
228.6045613978478	-0.05755555555555879
228.1724787959842	-0.03533333333333657
227.74037613100714	0.011111111111111112
227.30825340151793	-0.006000000000001617
226.87611060611584	0.0048888888888905056
226.4439477434087	-0.05311111111111434
226.01176481199144	-0.06711111111111273
225.5795618104719	-0.035555555555555556
225.1473387374515	-0.04288888888888727
224.71509559152722	0.06711111111111273
224.28283237130915	0.0686666666666699
223.85054907539	-0.06444444444444444
223.41824570237551	-0.011111111111111112
222.98592225086918	-0.004222222222225456
222.55357871946592	-0.04399999999999838
222.12121510677358	0.05244444444444121
221.68883141138704	-0.03822222222222384
221.2564276319099	-0.03822222222222384
220.82400376694562	0.008444444444442827
220.391559815087	-0.14066666666666505
219.95909577494402	0.03666666666666667
219.52661164510724	-0.056444444444447676
219.09410742418672	0.01
218.66158311077297	-0.0313333333333301
218.2290387034696	-0.01
217.79647420088008	0.0033333333333333335
217.36388960159718	0.04955555555555394
216.93128490422876	0.02088888888889212
216.49866010736534	0.07711111111111273
216.0660152096083	0.03533333333333657
215.6333502095634	-0.0022222222222222222
215.20066510582114	-0.04
214.76795989698724	-0.0048888888888905056
214.33523458165223	-0.036000000000001614
213.90248915841968	0.0513333333333301
213.46972362589096	0.03177777777777616
213.03693798265877	0.12111111111111111
212.6041322273245	0.08422222222222546
212.171306358483	0.05955555555555394
211.73846037473567	-0.047333333333331715
211.30559427467955	-0.02911111111110788
210.87270805690952	-0.04755555555555879
210.4398017200291	-0.10333333333333333
210.00687526262885	0.01244444444444121
209.57392868330584	0.05600000000000162
209.1409619806657	-0.061555555555557175
208.7079751532969	0.09333333333333334
208.27496819980294	0.06755555555555878
207.84194111877216	0.12
207.408893908806	0.007999999999996767
206.9758265685036	0.0662222222222206
206.54273909645556	-0.09777777777777778
206.10963149126542	-0.11
