Wavelength(nm), Raman shift(cm^-1), Intensity(counts) 
525.3119834710744,-196.4641429450702,59770
525.2995867768595,-196.9133861547752,59872
525.2871900826447,-197.36265056861674,59828
525.2747933884298,-197.81193618809536,60013
525.2623966942149,-198.26124301471376,59996
525.25,-198.71057104997246,60121
525.2376033057851,-199.15992029537415,60018
525.2252066115702,-199.6092907524216,60037
525.2128099173553,-200.0586824226153,60049
525.2004132231405,-200.5080953074558,59959
525.1880165289256,-200.9575294084501,59968
525.1756198347107,-201.40698472709445,59938
525.1632231404959,-201.85646126489374,59962
525.150826446281,-202.30595902335276,59995
525.1384297520661,-202.75547800397646,59951
525.1260330578513,-203.20501820826098,59945
525.1136363636364,-203.65457963771559,59969
525.1012396694215,-204.10416229384077,60024
525.0888429752066,-204.55376617813928,59951
525.0764462809917,-205.00339129211594,60088
525.0640495867768,-205.45303763727347,60047
525.051652892562,-205.90270521511675,60068
525.0392561983471,-206.3523940271485,60047
525.0268595041322,-206.80210407487573,59947
525.0144628099174,-207.25183535979468,59981
525.0020661157025,-207.70158788341882,60009
524.9896694214876,-208.15136164725095,60031
524.9772727272727,-208.60115665279588,59975
524.9648760330579,-209.05097290155413,60015
524.952479338843,-209.500810395035,59956
524.9400826446281,-209.95066913474108,60023
524.9276859504132,-210.40054912217948,59966
524.9152892561983,-210.85045035885292,59987
524.9028925619834,-211.30037284627056,60011
524.8904958677685,-211.7503165859351,59984
524.8780991735537,-212.20028157935366,60017
524.8657024793389,-212.65026782802883,59991
524.853305785124,-213.1002753334721,60011
524.8409090909091,-213.55030409719043,59998
524.8285123966942,-214.0003541206844,60035
524.8161157024794,-214.45042540546532,60041
524.8037190082645,-214.900517953036,59989
524.7913223140496,-215.35063176490775,59942
524.7789256198347,-215.8007668425833,60012
524.7665289256198,-216.25092318757183,59905
524.7541322314049,-216.7011008013804,59963
524.74173553719,-217.15129968551605,59997
524.7293388429752,-217.601519841488,60060
524.7169421487604,-218.05176127079676,60067
524.7045454545455,-218.50202397496022,59977
524.6921487603306,-218.9523079554811,59989
524.6797520661157,-219.40261321386862,60013
524.6673553719008,-219.85293975163196,59962
524.654958677686,-220.30328757027817,59972
524.6425619834711,-220.7536566713143,60022
524.6301652892562,-221.2040470562517,59926
524.6177685950413,-221.65445872659745,60010
524.6053719008264,-222.10489168386073,60022
524.5929752066115,-222.55534592955294,59958
524.5805785123966,-223.00582146517894,60101
524.5681818181819,-223.45631829224794,59912
524.555785123967,-223.90683641227565,60013
524.5433884297521,-224.35737582676913,59978
524.5309917355372,-224.80793653723757,59977
524.5185950413223,-225.25851854519019,59993
524.5061983471074,-225.70912185213618,60004
524.4938016528926,-226.15974645958912,60092
524.4814049586777,-226.610392369056,60119
524.4690082644628,-227.06105958204824,60039
524.4566115702479,-227.51174810007723,59918
524.444214876033,-227.9624579246543,60028
524.4318181818181,-228.41318905729088,60031
524.4194214876034,-228.86394149948964,60006
524.4070247933885,-229.31471525277496,60017
524.3946280991736,-229.76551031865392,59921
524.3822314049587,-230.21632669863354,59966
524.3698347107438,-230.6671643942295,60009
524.3574380165289,-231.11802340695323,59947
524.345041322314,-231.56890373831394,59902
524.3326446280992,-232.0198053898273,59891
524.3202479338843,-232.4707283630047,59922
524.3078512396694,-232.92167265935538,60013
524.2954545454545,-233.3726382803972,59941
524.2830578512396,-233.82362522763722,60058
524.2706611570248,-234.27463350258896,60027
524.25826446281,-234.7256631067703,60015
524.2458677685951,-235.1767140416905,59978
524.2334710743802,-235.6277863088652,59936
524.2210743801653,-236.07887990980586,60086
524.2086776859504,-236.52999484602594,59954
524.1962809917355,-236.98113111903905,59982
524.1838842975206,-237.43228873036088,60015
524.1714876033058,-237.883467681505,59982
524.1590909090909,-238.33466797398276,60092
524.146694214876,-238.78588960930986,59967
524.1342975206611,-239.23713258900207,59954
524.1219008264463,-239.68839691456853,59968
524.1095041322315,-240.13968258753152,60001
524.0971074380166,-240.59098960940457,59986
524.0847107438017,-241.04231798169903,60045
524.0723140495868,-241.4936677059328,59966
524.0599173553719,-241.94503878361945,60019
524.047520661157,-242.3964312162747,60043
524.0351239669421,-242.8478450054142,59951
524.0227272727273,-243.2992801525537,60051
524.0103305785124,-243.7507366592111,60020
523.9979338842975,-244.20221452689776,60035
523.9855371900826,-244.65371375713374,59963
523.9731404958678,-245.10523435142827,59922
523.9607438016529,-245.55677631130786,59984
523.948347107438,-246.00833963828606,59976
523.9359504132232,-246.45992433387644,59949
523.9235537190083,-246.9115303995969,59914
523.9111570247934,-247.36315783696747,60019
523.8987603305785,-247.81480664749952,60014
523.8863636363636,-248.26647683271526,59949
523.8739669421487,-248.71816839413043,59989
523.8615702479339,-249.1698813332629,60001
523.849173553719,-249.62161565162842,59942
523.8367768595041,-250.07337135074917,60066
523.8243801652893,-250.52514843213436,59985
523.8119834710744,-250.97694689731054,59964
523.7995867768595,-251.4287667477956,59985
523.7871900826447,-251.8806079851053,60004
523.7747933884298,-252.33247061075747,59979
523.7623966942149,-252.78435462627434,60038
523.75,-253.23626003317165,59999
523.7376033057851,-253.68818683296942,59976
523.7252066115702,-254.14013502718552,59983
523.7128099173553,-254.59210461734006,60073
523.7004132231405,-255.04409560495304,60042
523.6880165289256,-255.49610799154453,59998
523.6756198347107,-255.94814177863245,59993
523.6632231404959,-256.4001969677324,59963
523.650826446281,-256.8522735603754,59938
523.6384297520661,-257.304371558075,60012
523.6260330578513,-257.7564909623511,60008
523.6136363636364,-258.2086317747261,60071
523.6012396694215,-258.6607939967199,59896
523.5888429752066,-259.11297762985265,60008
523.5764462809917,-259.5651826756444,60070
523.5640495867768,-260.01740913561946,60036
523.551652892562,-260.4696570112958,60045
523.5392561983471,-260.9219263041934,60004
523.5268595041322,-261.3742170158389,60030
523.5144628099174,-261.82652914774576,59991
523.5020661157025,-262.2788627014449,60034
523.4896694214876,-262.7312176784521,59968
523.4772727272727,-263.1835940802938,60023
523.4648760330579,-263.63599190849015,59998
523.452479338843,-264.08841116456114,60013
523.4400826446281,-264.54085185003123,60006
523.4276859504132,-264.99331396642475,60039
523.4152892561983,-265.4457975152596,59961
523.4028925619834,-265.8983024980644,60008
523.3904958677685,-266.3508289163573,60107
523.3780991735537,-266.80337677166455,60012
523.3657024793389,-267.25594606550425,60044
523.353305785124,-267.70853679940717,59962
523.3409090909091,-268.16114897489564,59993
523.3285123966942,-268.6137825934896,60065
523.3161157024794,-269.06643765671566,60004
523.3037190082645,-269.519114166096,60051
523.2913223140496,-269.9718121231573,60077
523.2789256198347,-270.42453152942164,60030
523.2665289256198,-270.87727238641344,60011
523.2541322314049,-271.33003469565926,60039
523.24173553719,-271.7828184586814,59968
523.2293388429752,-272.23562367700634,60099
523.2169421487604,-272.6884503521563,59988
523.2045454545455,-273.14129848566,60069
523.1921487603306,-273.594168079044,60132
523.1797520661157,-274.04705913383054,60016
523.1673553719008,-274.4999716515462,60088
523.154958677686,-274.95290563371753,60165
523.1425619834711,-275.40586108186886,60046
523.1301652892562,-275.85883799752673,60104
523.1177685950413,-276.31183638221785,60213
523.1053719008264,-276.7648562374686,60101
523.0929752066115,-277.21789756480564,60123
523.0805785123966,-277.67096036575333,60153
523.0681818181819,-278.1240446418382,60095
523.055785123967,-278.57715039459123,60090
523.0433884297521,-279.0302776255389,60218
523.0309917355372,-279.4834263362056,60088
523.0185950413223,-279.9365965281222,60112
523.0061983471074,-280.389788202811,60074
522.9938016528926,-280.843001361805,60110
522.9814049586777,-281.29623600662865,60125
522.9690082644628,-281.7494921388106,60231
522.9566115702479,-282.2027697598796,60201
522.944214876033,-282.65606887136437,60222
522.9318181818181,-283.10938947479156,60129
522.9194214876034,-283.5627315716854,60195
522.9070247933885,-284.0160951635856,60230
522.8946280991736,-284.46948025201425,60156
522.8822314049587,-284.9228868385002,60243
522.8698347107438,-285.3763149245742,60196
522.8574380165289,-285.8297645117651,60203
522.845041322314,-286.28323560160163,60187
522.8326446280992,-286.73672819561244,60312
522.8202479338843,-287.19024229532846,60233
522.8078512396694,-287.64377790228053,60250
522.7954545454545,-288.0973350179953,60170
522.7830578512396,-288.55091364400795,60191
522.7706611570248,-289.0045137818385,60145
522.75826446281,-289.4581354330309,60212
522.7458677685951,-289.91177859910954,60244
522.7334710743802,-290.3654432816032,60295
522.7210743801653,-290.8191294820448,60284
522.7086776859504,-291.27283720196743,60276
522.6962809917355,-291.72656644289776,60222
522.6838842975206,-292.1803172063688,60246
522.6714876033058,-292.63408949391135,60155
522.6590909090909,-293.0878833070608,60230
522.646694214876,-293.54169864734354,60231
522.6342975206611,-293.995535516295,60278
522.6219008264463,-294.44939391544153,60182
522.6095041322315,-294.9032738463228,60161
522.5971074380166,-295.35717531046754,60294
522.5847107438017,-295.81109830941097,60274
522.5723140495868,-296.2650428446818,60256
522.5599173553719,-296.71900891781524,60280
522.547520661157,-297.17299653034223,60216
522.5351239669421,-297.62700568379586,60258
522.5227272727273,-298.08103637971124,60250
522.5103305785124,-298.53508861962155,60198
522.4979338842975,-298.98916240505764,60201
522.4855371900826,-299.44325773755475,60197
522.4731404958678,-299.89737461864377,60224
522.4607438016529,-300.35151304986425,60361
522.448347107438,-300.8056730327492,60310
522.4359504132232,-301.25985456882967,60339
522.4235537190083,-301.71405765964073,60294
522.4111570247934,-302.16828230671774,60279
522.3987603305785,-302.6225285115958,60290
522.3863636363636,-303.0767962758081,60309
522.3739669421487,-303.53108560088975,60342
522.3615702479339,-303.9853964883783,60320
522.349173553719,-304.43972893980447,60300
522.3367768595041,-304.8940829567079,60267
522.3243801652893,-305.34845854061734,60293
522.3119834710744,-305.8028556930767,60300
522.2995867768595,-306.25727441562117,60408
522.2871900826447,-306.7117147097817,60306
522.2747933884298,-307.16617657709776,60297
522.2623966942149,-307.6206600191025,60353
522.25,-308.07516503733547,60375
522.2376033057851,-308.5296916333319,60317
522.2252066115702,-308.9842398086291,60260
522.2128099173553,-309.43880956476244,60372
522.2004132231405,-309.89340090326925,60313
522.1880165289256,-310.3480138256869,60365
522.1756198347107,-310.80264833355284,60283
522.1632231404959,-311.2573044284001,60237
522.150826446281,-311.71198211177483,60247
522.1384297520661,-312.16668138521,60207
522.1260330578513,-312.6214022502452,60286
522.1136363636364,-313.07614470841565,60257
522.1012396694215,-313.53090876126095,60159
522.0888429752066,-313.98569441031844,60253
522.0764462809917,-314.44050165712775,60219
522.0640495867768,-314.8953305032284,60264
522.051652892562,-315.35018095015573,60342
522.0392561983471,-315.80505299945133,60291
522.0268595041322,-316.2599466526527,60197
522.0144628099174,-316.714861911295,60232
522.0020661157025,-317.1697987769265,60256
521.9896694214876,-317.6247572510824,60283
521.9772727272727,-318.07973733530457,60301
521.9648760330579,-318.534739031128,60288
521.952479338843,-318.98976234009467,60261
521.9400826446281,-319.444807263744,60170
521.9276859504132,-319.8998738036178,60191
521.9152892561983,-320.3549619612556,60266
521.9028925619834,-320.8100717381991,60234
521.8904958677685,-321.2652031359857,60291
521.8780991735537,-321.72035615615727,60233
521.8657024793389,-322.1755308002532,60236
521.853305785124,-322.63072706981967,60148
521.8409090909091,-323.08594496639626,60142
521.8285123966942,-323.54118449152026,60258
521.8161157024794,-323.9964456467378,60123
521.8037190082645,-324.4517284335885,60241
521.7913223140496,-324.90703285361406,60206
521.7789256198347,-325.3623589083562,60187
521.7665289256198,-325.8177065993588,60163
521.7541322314049,-326.2730759281615,60161
521.74173553719,-326.72846689630813,60123
521.7293388429752,-327.1838795053383,60160
521.7169421487604,-327.63931375679596,60236
521.7045454545455,-328.0947696522292,60223
521.6921487603306,-328.5502471931756,60157
521.6797520661157,-329.00574638117894,60162
521.6673553719008,-329.46126721778313,60163
521.654958677686,-329.9168097045321,60149
521.6425619834711,-330.3723738429698,60209
521.6301652892562,-330.8279596346379,60229
521.6177685950413,-331.2835670810804,60231
521.6053719008264,-331.7391961838432,60211
521.5929752066115,-332.19484694446817,60163
521.5805785123966,-332.65051936450135,60217
521.5681818181819,-333.1062134454823,60179
521.555785123967,-333.56192918896363,60181
521.5433884297521,-334.017666596487,60181
521.5309917355372,-334.4734256695964,60206
521.5185950413223,-334.92920640983573,60222
521.5061983471074,-335.385008818751,60186
521.4938016528926,-335.8408328978883,60218
521.4814049586777,-336.29667864879366,60175
521.4690082644628,-336.75254607300894,60198
521.4566115702479,-337.2084351720844,60275
521.444214876033,-337.66434594756413,60164
521.4318181818181,-338.1202784009918,60168
521.4194214876034,-338.5762325339137,60139
521.4070247933885,-339.0322083478823,60200
521.3946280991736,-339.48820584443934,60190
521.3822314049587,-339.9442250251331,60058
521.3698347107438,-340.4002658915074,60129
521.3574380165289,-340.85632844511275,60165
521.345041322314,-341.312412687493,60130
521.3326446280992,-341.76851862019856,60076
521.3202479338843,-342.22464624477334,60173
521.3078512396694,-342.68079556276774,60098
521.2954545454545,-343.13696657572785,60134
521.2830578512396,-343.59315928520186,60124
521.2706611570248,-344.0493736927338,60167
521.25826446281,-344.50560979988046,60056
521.2458677685951,-344.96186760818364,60118
521.2334710743802,-345.4181471191937,60144
521.2210743801653,-345.8744483344611,60098
521.2086776859504,-346.33077125552967,60097
521.1962809917355,-346.787115883952,60178
521.1838842975206,-347.2434822212765,60141
521.1714876033058,-347.69987026904903,60124
521.1590909090909,-348.1562800288244,60157
521.146694214876,-348.61271150214657,60112
521.1342975206611,-349.06916469057023,60215
521.1219008264463,-349.52563959563713,60100
521.1095041322315,-349.98213621890636,60168
521.0971074380166,-350.438654561924,60092
521.0847107438017,-350.8951946262404,60138
521.0723140495868,-351.35175641340606,60068
521.0599173553719,-351.80833992497134,60120
521.047520661157,-352.2649451624866,60094
521.0351239669421,-352.72157212750017,60072
521.0227272727273,-353.1782208215689,60215
521.0103305785124,-353.63489124623896,60111
520.9979338842975,-354.0915834030606,60131
520.9855371900826,-354.5482972935909,60127
520.9731404958678,-355.00503291937144,60148
520.9607438016529,-355.4617902819636,60127
520.948347107438,-355.9185693829178,60157
520.9359504132232,-356.3753702237821,60093
520.9235537190083,-356.83219280611144,60113
520.9111570247934,-357.28903713145826,60101
520.8987603305785,-357.74590320137094,60014
520.8863636363636,-358.20279101740624,60104
520.8739669421487,-358.6597005811147,60161
520.8615702479339,-359.116631894051,60105
520.849173553719,-359.57358495776555,60155
520.8367768595041,-360.03055977381314,60104
520.8243801652893,-360.48755634374197,60124
520.8119834710744,-360.94457466911547,60048
520.7995867768595,-361.40161475147966,60171
520.7871900826447,-361.85867659239153,60184
520.7747933884298,-362.31576019340366,60224
520.7623966942149,-362.77286555607077,60223
520.75,-363.2299926819454,60023
520.7376033057851,-363.6871415725845,60078
520.7252066115702,-364.1443122295385,60197
520.7128099173553,-364.60150465436647,60074
520.7004132231405,-365.0587188486188,60018
520.6880165289256,-365.5159548138546,60054
520.6756198347107,-365.9732125516242,60163
520.6632231404959,-366.43049206348246,60081
520.650826446281,-366.88779335099275,60163
520.6384297520661,-367.34511641570543,60203
520.6260330578513,-367.80246125917535,60124
520.6136363636364,-368.25982788295937,60040
520.6012396694215,-368.7172162886122,60050
520.5888429752066,-369.1746264776908,60186
520.5764462809917,-369.6320584517521,60174
520.5640495867768,-370.08951221235077,60079
520.551652892562,-370.54698776104595,60068
520.5392561983471,-371.0044850993902,60122
520.5268595041322,-371.4620042289448,60086
520.5144628099174,-371.91954515126014,60133
520.5020661157025,-372.3771078679018,60111
520.4896694214876,-372.8346923804224,60148
520.4772727272727,-373.2922986903809,60095
520.4648760330579,-373.7499267993344,60119
520.452479338843,-374.2075767088396,60112
520.4400826446281,-374.6652484204536,60006
520.4276859504132,-375.12294193573763,60070
520.4152892561983,-375.5806572562463,60092
520.4028925619834,-376.038394383541,60073
520.3904958677685,-376.4961533191764,60085
520.3780991735537,-376.95393406471595,60097
520.3657024793389,-377.4117366217101,60079
520.353305785124,-377.8695609917265,60105
520.3409090909091,-378.3274071763221,60107
520.3285123966942,-378.785275177056,60028
520.3161157024794,-379.2431649954852,60099
520.3037190082645,-379.7010766331708,60102
520.2913223140496,-380.1590100916742,60204
520.2789256198347,-380.61696537255216,60022
520.2665289256198,-381.07494247736383,60020
520.2541322314049,-381.5329414076727,60076
520.24173553719,-381.9909621650356,60043
520.2293388429752,-382.449004751016,60133
520.2169421487604,-382.90706916717073,60032
520.2045454545455,-383.36515541506327,60058
520.1921487603306,-383.8232634962571,59983
520.1797520661157,-384.281393412309,60115
520.1673553719008,-384.73954516478034,60123
520.154958677686,-385.1977187552323,59990
520.1425619834711,-385.6559141852305,60029
520.1301652892562,-386.1141314563297,60119
520.1177685950413,-386.5723705700976,60099
520.1053719008264,-387.03063152809113,60065
520.0929752066115,-387.4889143318759,60148
520.0805785123966,-387.94721898301316,60070
520.0681818181819,-388.40554548306204,60060
520.055785123967,-388.86389383359017,60134
520.0433884297521,-389.3222640361589,60029
520.0309917355372,-389.7806560923273,60150
520.0185950413223,-390.23907000366313,60097
520.0061983471074,-390.6975057717276,60079
519.9938016528926,-391.155963398082,60092
519.9814049586777,-391.61444288429414,60057
519.9690082644628,-392.07294423192076,60057
519.9566115702479,-392.53146744253195,59950
519.944214876033,-392.9900125176889,60071
519.9318181818181,-393.44857945895285,59990
519.9194214876034,-393.9071682678894,60051
519.9070247933885,-394.3657789460663,59982
519.8946280991736,-394.824411495047,60110
519.8822314049587,-395.28306591639273,60062
519.8698347107438,-395.74174221167124,60012
519.8574380165289,-396.200440382446,60096
519.845041322314,-396.6591604302825,60103
519.8326446280992,-397.1179023567464,60031
519.8202479338843,-397.5766661634011,60113
519.8078512396694,-398.0354518518122,60057
519.7954545454545,-398.4942594235474,60046
519.7830578512396,-398.9530888801724,60010
519.7706611570248,-399.4119402232462,60072
519.75826446281,-399.8708134543452,60066
519.7458677685951,-400.32970857503074,60090
519.7334710743802,-400.78862558686836,60144
519.7210743801653,-401.24756449142797,60067
519.7086776859504,-401.706525290273,60056
519.6962809917355,-402.1655079849691,60154
519.6838842975206,-402.62451257708614,59997
519.6714876033058,-403.08353906819184,60062
519.6590909090909,-403.54258745984964,60120
519.646694214876,-404.0016577536295,60140
519.6342975206611,-404.4607499510992,60041
519.6219008264463,-404.91986405381994,60129
519.6095041322315,-405.3790000633725,60035
519.5971074380166,-405.83815798131593,59999
519.5847107438017,-406.297337809218,60042
519.5723140495868,-406.756539548653,60027
519.5599173553719,-407.2157632011822,60064
519.547520661157,-407.6750087683798,60053
519.5351239669421,-408.1342762518093,60066
519.5227272727273,-408.5935656530449,60115
519.5103305785124,-409.05287697365213,60050
519.4979338842975,-409.51221021520104,60135
519.4855371900826,-409.9715653792615,60192
519.4731404958678,-410.43094246739906,60087
519.4607438016529,-410.89034148119026,60037
519.448347107438,-411.34976242220273,60137
519.4359504132232,-411.8092052920021,60139
519.4235537190083,-412.2686700921648,60042
519.4111570247934,-412.7281568242565,60085
519.3987603305785,-413.187665489847,60063
519.3863636363636,-413.64719609051065,60019
519.3739669421487,-414.10674862781514,60123
519.3615702479339,-414.56632310333475,60090
519.349173553719,-415.02591951863513,60070
519.3367768595041,-415.48553787529045,60023
519.3243801652893,-415.94517817486854,60049
519.3119834710744,-416.40484041894797,60012
519.2995867768595,-416.86452460909646,60078
519.2871900826447,-417.3242307468862,60136
519.2747933884298,-417.78395883388697,60056
519.2623966942149,-418.24370887167316,60060
519.25,-418.70348086181684,60052
519.2376033057851,-419.16327480589,60059
519.2252066115702,-419.62309070546274,60021
519.2128099173553,-420.0829285621113,60030
519.2004132231405,-420.54278837740577,59983
519.1880165289256,-421.00267015292246,60069
519.1756198347107,-421.46257389022924,60070
519.1632231404959,-421.92249959090026,59991
519.150826446281,-422.3824472565142,60046
519.1384297520661,-422.8424168886409,59994
519.1260330578513,-423.30240848885467,60156
519.1136363636364,-423.76242205872984,60038
519.1012396694215,-424.2224575998384,60141
519.0888429752066,-424.6825151137568,60099
519.0764462809917,-425.14259460205716,60003
519.0640495867768,-425.6026960663159,60092
519.051652892562,-426.0628195081051,60115
519.0392561983471,-426.5229649290012,60125
519.0268595041322,-426.98313233058064,60032
519.0144628099174,-427.4433217144112,60111
519.0020661157025,-427.9035330820779,60028
518.9896694214876,-428.3637664351529,60080
518.9772727272727,-428.8240217752105,60024
518.9648760330579,-429.2842991038249,60161
518.952479338843,-429.74459842257465,60063
518.9400826446281,-430.2049197330341,60141
518.9276859504132,-430.66526303677966,60102
518.9152892561983,-431.1256283353877,60095
518.9028925619834,-431.5860156304326,60085
518.8904958677685,-432.046424923495,60174
518.8780991735537,-432.50685621614923,60071
518.8657024793389,-432.9673095099674,60059
518.853305785124,-433.42778480653453,60075
518.8409090909091,-433.88828210742497,60104
518.8285123966942,-434.3488014142173,60050
518.8161157024794,-434.8093427284858,60149
518.8037190082645,-435.26990605180896,60137
518.7913223140496,-435.73049138576545,60093
518.7789256198347,-436.19109873193395,60073
518.7665289256198,-436.65172809189073,60025
518.7541322314049,-437.1123794672145,60101
518.74173553719,-437.5730528594838,60088
518.7293388429752,-438.03374827027517,60067
518.7169421487604,-438.4944657011671,60140
518.7045454545455,-438.95520515374466,60032
518.6921487603306,-439.4159666295822,60051
518.6797520661157,-439.8767501302583,60035
518.6673553719008,-440.33755565735373,60077
518.654958677686,-440.79838321244705,60132
518.6425619834711,-441.2592327971169,60071
518.6301652892562,-441.7201044129462,60008
518.6177685950413,-442.1809980615114,59958
518.6053719008264,-442.6419137443932,60086
518.5929752066115,-443.1028514631746,59984
518.5805785123966,-443.563811219432,60026
518.5681818181819,-444.02479301474403,60010
518.555785123967,-444.48579685069797,60090
518.5433884297521,-444.94682272887235,59996
518.5309917355372,-445.4078706508458,60029
518.5185950413223,-445.86894061820124,60040
518.5061983471074,-446.33003263251953,60090
518.4938016528926,-446.7911466953813,60029
518.4814049586777,-447.25228280836956,60074
518.4690082644628,-447.71344097306513,60073
518.4566115702479,-448.17462119104863,60028
518.444214876033,-448.6358234639053,60019
518.4318181818181,-449.0970477932137,60006
518.4194214876034,-449.55829418055237,59967
518.4070247933885,-450.0195626275152,60021
518.3946280991736,-450.48085313567634,60063
518.3822314049587,-450.9421657066209,60031
518.3698347107438,-451.40350034193193,60052
518.3574380165289,-451.8648570431922,59970
518.345041322314,-452.3262358119848,60029
518.3326446280992,-452.7876366498926,59998
518.3202479338843,-453.2490595584985,60066
518.3078512396694,-453.71050453938983,60066
518.2954545454545,-454.17197159414513,60093
518.2830578512396,-454.6334607243518,60073
518.2706611570248,-455.09497193158825,60004
518.25826446281,-455.5565052174484,60029
518.2458677685951,-456.01806058351076,59947
518.2334710743802,-456.4796380313605,60052
518.2210743801653,-456.94123756258483,59942
518.2086776859504,-457.4028591787646,59981
518.1962809917355,-457.864502881487,59995
518.1838842975206,-458.326168672335,60023
518.1714876033058,-458.78785655289806,60053
518.1590909090909,-459.2495665247591,60008
518.146694214876,-459.7112985895032,59971
518.1342975206611,-460.17305274871546,59944
518.1219008264463,-460.63482900398105,60025
518.1095041322315,-461.09662735689153,59985
518.0971074380166,-461.5584478090298,60066
518.0847107438017,-462.0202903619832,59963
518.0723140495868,-462.48215501733466,59990
518.0599173553719,-462.9440417766757,59994
518.047520661157,-463.4059506415894,59941
518.0351239669421,-463.8678816136651,59994
518.0227272727273,-464.3298346944879,60099
518.0103305785124,-464.79180988564724,60019
517.9979338842975,-465.2538071887283,60045
517.9855371900826,-465.71582660532044,59953
517.9731404958678,-466.1778681370066,60062
517.9607438016529,-466.6399317853828,59997
517.948347107438,-467.1020175520341,60007
517.9359504132232,-467.5641254385456,60095
517.9235537190083,-468.02625544650886,60036
517.9111570247934,-468.4884075775112,60004
517.8987603305785,-468.9505818331421,60089
517.8863636363636,-469.41277821498875,60070
517.8739669421487,-469.87499672464065,59995
517.8615702479339,-470.3372373636872,60018
517.849173553719,-470.7995001337201,60067
517.8367768595041,-471.2617850363243,59907
517.8243801652893,-471.72409207308505,60079
517.8119834710744,-472.18642124560466,59959
517.7995867768595,-472.6487725554684,60022
517.7871900826447,-473.11114600426123,60077
517.7747933884298,-473.57354159357914,60073
517.7623966942149,-474.03595932500946,60093
517.75,-474.49839920014153,59943
517.7376033057851,-474.9608612205692,60031
517.7252066115702,-475.4233453878819,60046
517.7128099173553,-475.88585170366906,60082
517.7004132231405,-476.3483801695245,60099
517.6880165289256,-476.81093078703753,60016
517.6756198347107,-477.2735035577999,60015
517.6632231404959,-477.73609848339885,60022
517.650826446281,-478.1987155654346,60085
517.6384297520661,-478.66135480549445,60084
517.6260330578513,-479.12401620517005,60081
517.6136363636364,-479.58669976605734,60095
517.6012396694215,-480.04940548974355,60032
517.5888429752066,-480.51213337782247,59973
517.5764462809917,-480.97488343188786,59978
517.5640495867768,-481.43765565353357,60020
517.551652892562,-481.900450044349,60004
517.5392561983471,-482.36326660593,60047
517.5268595041322,-482.8261053398683,59994
517.5144628099174,-483.2889662477555,59987
517.5020661157025,-483.7518493311897,60108
517.4896694214876,-484.2147545917647,60000
517.4772727272727,-484.6776820310698,60052
517.4648760330579,-485.14063165070115,60048
517.452479338843,-485.60360345225456,59962
517.4400826446281,-486.06659743732166,60148
517.4276859504132,-486.52961360749845,60016
517.4152892561983,-486.99265196437864,60065
517.4028925619834,-487.4557125095582,60090
517.3904958677685,-487.9187952446309,60045
517.3780991735537,-488.38190017119274,60087
517.3657024793389,-488.8450272908331,60154
517.353305785124,-489.30817660515663,60086
517.3409090909091,-489.7713481157549,60068
517.3285123966942,-490.23454182422176,60098
517.3161157024794,-490.6977577321574,60064
517.3037190082645,-491.1609958411535,60044
517.2913223140496,-491.62425615280813,60097
517.2789256198347,-492.0875386687173,59995
517.2665289256198,-492.5508433904768,60053
517.2541322314049,-493.014170319685,60073
517.24173553719,-493.4775194579354,60107
517.2293388429752,-493.94089080682846,60005
517.2169421487604,-494.4042843679536,60057
517.2045454545455,-494.8677001429197,60094
517.1921487603306,-495.3311381333163,60024
517.1797520661157,-495.7945983407458,60089
517.1673553719008,-496.258080766802,60112
517.154958677686,-496.7215854130829,60051
517.1425619834711,-497.1851122811868,60115
517.1301652892562,-497.64866137271383,60103
517.1177685950413,-498.11223268926,60029
517.1053719008264,-498.5758262324256,60024
517.0929752066115,-499.0394420038065,60085
517.0805785123966,-499.50308000500314,60059
517.0681818181819,-499.96674023761136,60057
517.055785123967,-500.43042270323576,60073
517.0433884297521,-500.8941274034745,60186
517.0309917355372,-501.35785433992345,60141
517.0185950413223,-501.8216035141852,60127
517.0061983471074,-502.28537492785773,60140
516.9938016528926,-502.7491685825414,60195
516.9814049586777,-503.21298447983645,60140
516.9690082644628,-503.67682262134105,60098
516.9566115702479,-504.14068300865756,60103
516.944214876033,-504.60456564338637,60114
516.9318181818181,-505.0684705271255,60176
516.9194214876034,-505.53239766147533,60098
516.9070247933885,-505.99634704804254,60143
516.8946280991736,-506.4603186884253,60220
516.8822314049587,-506.92431258422386,60136
516.8698347107438,-507.3883287370386,60213
516.8574380165289,-507.85236714847184,60260
516.845041322314,-508.31642782012824,60117
516.8326446280992,-508.78051075360383,60276
516.8202479338843,-509.2446159505053,60245
516.8078512396694,-509.70874341243297,60319
516.7954545454545,-510.1728931409893,60276
516.7830578512396,-510.6370651377767,60336
516.7706611570248,-511.10125940439326,60447
516.75826446281,-511.5654759424524,60426
516.7458677685951,-512.0297147535478,60341
516.7334710743802,-512.4939758392862,60489
516.7210743801653,-512.9582592012703,60580
516.7086776859504,-513.4225648411021,60683
516.6962809917355,-513.8868927603868,60874
516.6838842975206,-514.3512429607285,60944
516.6714876033058,-514.8156154437278,61206
516.6590909090909,-515.2800102109912,61382
516.646694214876,-515.7444272641237,61762
516.6342975206611,-516.2088666047252,62188
516.6219008264463,-516.6733282344006,62991
516.6095041322315,-517.1378121547609,63671
516.5971074380166,-517.6023183674087,64768
516.5847107438017,-518.066846873944,65536
516.5723140495868,-518.531397675976,66394
516.5599173553719,-518.9959707751092,66752
516.547520661157,-519.4605661729481,67471
516.5351239669421,-519.9251838710977,67758
516.5227272727273,-520.3898238711645,68073
516.5103305785124,-520.8544861747553,68005
516.4979338842975,-521.3191707834748,67770
516.4855371900826,-521.7838776989274,67377
516.4731404958678,-522.2486069227182,66850
516.4607438016529,-522.7133584564622,66091
516.448347107438,-523.1781323017599,65529
516.4359504132232,-523.642928460218,64743
516.4235537190083,-524.1077469334433,64039
516.4111570247934,-524.5725877230448,63587
516.3987603305785,-525.0374508306271,63053
516.3863636363636,-525.5023362577991,62620
516.3739669421487,-525.9672440061677,62407
516.3615702479339,-526.4321740773418,61926
516.349173553719,-526.8971264729282,61571
516.3367768595041,-527.3621011945336,61212
516.3243801652893,-527.8270982437649,61165
516.3119834710744,-528.2921176222354,60906
516.2995867768595,-528.7571593315517,60673
516.2871900826447,-529.222223373321,60649
516.2747933884298,-529.6873097491539,60544
516.2623966942149,-530.1524184606575,60505
516.25,-530.6175495094407,60427
516.2376033057851,-531.0827028971146,60362
516.2252066115702,-531.5478786252861,60249
516.2128099173553,-532.0130766955662,60416
516.2004132231405,-532.4782971095638,60251
516.1880165289256,-532.9435398688902,60193
516.1756198347107,-533.4088049751542,60219
516.1632231404959,-533.8740924299627,60189
516.150826446281,-534.3394022349311,60204
516.1384297520661,-534.8047343916705,60209
516.1260330578513,-535.2700889017879,60215
516.1136363636364,-535.7354657668963,60138
516.1012396694215,-536.2008649886047,60212
516.0888429752066,-536.6662865685245,60102
516.0764462809917,-537.1317305082664,60154
516.0640495867768,-537.5971968094441,60171
516.051652892562,-538.0626854736685,60172
516.0392561983471,-538.5281965025507,60070
516.0268595041322,-538.9937298976997,60131
516.0144628099174,-539.4592856607268,60169
516.0020661157025,-539.9248637932537,60142
515.9896694214876,-540.3904642968852,60186
515.9772727272727,-540.8560871732345,60032
515.9648760330579,-541.3217324239149,60022
515.952479338843,-541.7874000505376,60159
515.9400826446281,-542.253090054718,60078
515.9276859504132,-542.7188024380671,60027
515.9152892561983,-543.1845372022007,60138
515.9028925619834,-543.6502943487295,60137
515.8904958677685,-544.1160738792671,60102
515.8780991735537,-544.5818757954289,60097
515.8657024793389,-545.0477000988238,60027
515.853305785124,-545.5135467910738,60096
515.8409090909091,-545.9794158737901,60050
515.8285123966942,-546.4453073485859,60041
515.8161157024794,-546.9112212170744,60071
515.8037190082645,-547.3771574808733,60083
515.7913223140496,-547.8431161415939,60116
515.7789256198347,-548.3090972008536,59968
515.7665289256198,-548.775100660268,60100
515.7541322314049,-549.2411265214481,60036
515.74173553719,-549.7071747860159,60029
515.7293388429752,-550.1732454555805,59917
515.7169421487604,-550.6393385317572,60085
515.7045454545455,-551.1054540161703,60031
515.6921487603306,-551.5715919104285,60097
515.6797520661157,-552.0377522161518,60009
515.6673553719008,-552.5039349349556,60058
515.654958677686,-552.9701400684532,60034
515.6425619834711,-553.4363676182644,59978
515.6301652892562,-553.9026175860068,60020
515.6177685950413,-554.3688899732938,60138
515.6053719008264,-554.835184781745,60023
515.5929752066115,-555.3015020129761,60011
515.5805785123966,-555.7678416686067,60011
515.5681818181819,-556.2342037502481,60056
515.555785123967,-556.7005882595286,60052
515.5433884297521,-557.1669951980593,60060
515.5309917355372,-557.6334245674602,60011
515.5185950413223,-558.0998763693489,60060
515.5061983471074,-558.5663506053451,60083
515.4938016528926,-559.0328472770619,60008
515.4814049586777,-559.4993663861261,59970
515.4690082644628,-559.9659079341484,60041
515.4566115702479,-560.4324719227552,60107
515.444214876033,-560.8990583535599,59998
515.4318181818181,-561.3656672281844,60077
515.4194214876034,-561.8322985482442,60012
515.4070247933885,-562.2989523153656,60068
515.3946280991736,-562.765628531164,60029
515.3822314049587,-563.2323271972635,59955
515.3698347107438,-563.6990483152775,59992
515.3574380165289,-564.1657918868323,59962
515.345041322314,-564.6325579135455,60006
515.3326446280992,-565.0993463970368,60001
515.3202479338843,-565.5661573389305,59967
515.3078512396694,-566.0329907408419,59902
515.2954545454545,-566.4998466043975,60152
515.2830578512396,-566.9667249312126,60048
515.2706611570248,-567.4336257229114,59966
515.25826446281,-567.900548981118,59870
515.2458677685951,-568.3674947074522,60073
515.2334710743802,-568.8344629035339,59996
515.2210743801653,-569.3014535709893,60045
515.2086776859504,-569.768466711436,60007
515.1962809917355,-570.2355023264982,60053
515.1838842975206,-570.7025604177978,60004
515.1714876033058,-571.169640986959,60061
515.1590909090909,-571.6367440356017,60010
515.146694214876,-572.1038695653499,59975
515.1342975206611,-572.5710175778277,60042
515.1219008264463,-573.0381880746528,60072
515.1095041322315,-573.505381057458,59966
515.0971074380166,-573.9725965278608,60051
515.0847107438017,-574.4398344874877,60023
515.0723140495868,-574.9070949379607,59948
515.0599173553719,-575.3743778809037,59962
515.047520661157,-575.8416833179388,60077
515.0351239669421,-576.3090112506945,59957
515.0227272727273,-576.7763616807928,60005
515.0103305785124,-577.2437346098598,60019
514.9979338842975,-577.7111300395177,59995
514.9855371900826,-578.1785479713948,59994
514.9731404958678,-578.6459884071088,59932
514.9607438016529,-579.1134513482925,60021
514.948347107438,-579.5809367965722,60005
514.9359504132232,-580.0484447535679,60020
514.9235537190083,-580.5159752209099,59997
514.9111570247934,-580.9835282002203,59937
514.8987603305785,-581.4511036931276,60045
514.8863636363636,-581.9187017012559,60000
514.8739669421487,-582.3863222262338,59989
514.8615702479339,-582.8539652696853,60014
514.849173553719,-583.3216308332388,60010
514.8367768595041,-583.7893189185208,60069
514.8243801652893,-584.2570295271532,59956
514.8119834710744,-584.7247626607731,60090
514.7995867768595,-585.1925183210003,59986
514.7871900826447,-585.6602965094676,60035
514.7747933884298,-586.128097227797,60046
514.7623966942149,-586.5959204776191,59963
514.75,-587.0637662605603,60073
514.7376033057851,-587.5316345782511,60029
514.7252066115702,-587.9995254323179,60009
514.7128099173553,-588.4674388243892,60013
514.7004132231405,-588.9353747560934,59959
514.6880165289256,-589.403333229059,60025
514.6756198347107,-589.8713142449166,60001
514.6632231404959,-590.3393178052883,60003
514.650826446281,-590.8073439118132,60003
514.6384297520661,-591.2753925661156,60041
514.6260330578513,-591.743463769826,60042
514.6136363636364,-592.2115575245751,59986
514.6012396694215,-592.6796738319894,59994
514.5888429752066,-593.1478126936993,60019
514.5764462809917,-593.6159741113377,59969
514.5640495867768,-594.084158086533,59931
514.551652892562,-594.5523646209136,60048
514.5392561983471,-595.0205937161148,60082
514.5268595041322,-595.4888453737626,60070
514.5144628099174,-595.9571195954857,59984
514.5020661157025,-596.4254163829254,60066
514.4896694214876,-596.8937357377058,60045
514.4772727272727,-597.3620776614578,60051
514.4648760330579,-597.8304421558161,60019
514.452479338843,-598.2988292224092,60055
514.4400826446281,-598.7672388628722,60007
514.4276859504132,-599.2356710788337,60069
514.4152892561983,-599.7041258719261,60024
514.4028925619834,-600.1726032437847,60048
514.3904958677685,-600.641103196038,60063
514.3780991735537,-601.1096257303228,60013
514.3657024793389,-601.5781708482637,59949
514.353305785124,-602.0467385515061,60053
514.3409090909091,-602.5153288416744,59944
514.3285123966942,-602.9839417204035,59999
514.3161157024794,-603.4525771893284,59958
514.3037190082645,-603.9212352500818,60013
514.2913223140496,-604.3899159042945,60026
514.2789256198347,-604.8586191536058,59990
514.2665289256198,-605.3273449996461,60083
514.2541322314049,-605.7960934440486,60056
514.24173553719,-606.26486448845,59969
514.2293388429752,-606.7336581344834,60013
514.2169421487604,-607.2024743837817,60016
514.2045454545455,-607.671313237986,60003
514.1921487603306,-608.1401746987252,60102
514.1797520661157,-608.6090587676383,60044
514.1673553719008,-609.0779654463582,60026
514.154958677686,-609.54689473652,60028
514.1425619834711,-610.0158466397606,60049
514.1301652892562,-610.4848211577174,60027
514.1177685950413,-610.953818292021,60038
514.1053719008264,-611.4228380443127,60043
514.0929752066115,-611.8918804162254,59950
514.0805785123966,-612.3609454093985,60002
514.0681818181819,-612.8300330254604,60059
514.055785123967,-613.2991432660591,60037
514.0433884297521,-613.7682761328273,60044
514.0309917355372,-614.2374316274002,60012
514.0185950413223,-614.7066097514169,60027
514.0061983471074,-615.1758105065126,60098
513.9938016528926,-615.6450338943263,60080
513.9814049586777,-616.1142799164954,60028
513.9690082644628,-616.5835485746592,59993
513.9566115702479,-617.0528398704525,60022
513.944214876033,-617.5221538055149,60044
513.9318181818181,-617.9914903814832,60084
513.9194214876034,-618.4608495999948,60041
513.9070247933885,-618.9302314626956,60102
513.8946280991736,-619.399635971218,60063
513.8822314049587,-619.8690631272017,60008
513.8698347107438,-620.338512932288,60069
513.8574380165289,-620.8079853881142,60036
513.845041322314,-621.2774804963215,60062
513.8326446280992,-621.7469982585451,60056
513.8202479338843,-622.2165386764308,60038
513.8078512396694,-622.6861017516114,60065
513.7954545454545,-623.1556874857348,60037
513.7830578512396,-623.6252958804339,60127
513.7706611570248,-624.0949269373501,60110
513.75826446281,-624.5645806581273,60070
513.7458677685951,-625.0342570444087,60029
513.7334710743802,-625.5039560978275,60055
513.7210743801653,-625.9736778200316,60047
513.7086776859504,-626.4434222126558,60063
513.6962809917355,-626.9131892773462,60019
513.6838842975206,-627.382979015744,60018
513.6714876033058,-627.8527914294865,60036
513.6590909090909,-628.3226265202195,59955
513.646694214876,-628.7924842895824,60024
513.6342975206611,-629.2623647392209,60030
513.6219008264463,-629.7322678707677,59994
513.6095041322315,-630.2021936858797,60032
513.5971074380166,-630.6721421861896,59993
513.5847107438017,-631.1421133733431,60041
513.5723140495868,-631.6121072489819,60044
513.5599173553719,-632.0821238147496,59972
513.547520661157,-632.5521630722919,59937
513.5351239669421,-633.0222250232462,59979
513.5227272727273,-633.4923096692622,60003
513.5103305785124,-633.9624170119797,60011
513.4979338842975,-634.4325470530421,60046
513.4855371900826,-634.9026997940973,60029
513.4731404958678,-635.3728752367806,59963
513.4607438016529,-635.8430733827483,60060
513.448347107438,-636.3132942336377,60118
513.4359504132232,-636.7835377910948,60025
513.4235537190083,-637.2538040567673,60032
513.4111570247934,-637.7240930322946,60051
513.3987603305785,-638.1944047193248,60042
513.3863636363636,-638.6647391195036,59986
513.3739669421487,-639.1350962344746,60008
513.3615702479339,-639.6054760658839,60069
513.349173553719,-640.0758786153792,59953
513.3367768595041,-640.5463038846042,60055
513.3243801652893,-641.0167518752005,60054
513.3119834710744,-641.4872225888246,60087
513.2995867768595,-641.9577160271181,60039
513.2871900826447,-642.4282321917268,59956
513.2747933884298,-642.8987710842965,60002
513.2623966942149,-643.3693327064752,59978
513.25,-643.8399170599108,60067
513.2376033057851,-644.3105241462472,60050
513.2252066115702,-644.7811539671364,60025
513.2128099173553,-645.2518065242223,59973
513.2004132231405,-645.722481819155,60025
513.1880165289256,-646.1931798535779,60060
513.1756198347107,-646.6639006291438,60000
513.1632231404959,-647.1346441474959,60019
513.150826446281,-647.6054104102868,60003
513.1384297520661,-648.0761994191665,60054
513.1260330578513,-648.5470111757788,60072
513.1136363636364,-649.017845681776,60096
513.1012396694215,-649.4887029388036,60038
513.0888429752066,-649.9595829485122,59994
513.0764462809917,-650.430485712554,59983
513.0640495867768,-650.9014112325725,60049
513.051652892562,-651.3723595102223,59984
513.0392561983471,-651.8433305471492,60005
513.0268595041322,-652.3143243450077,60061
513.0144628099174,-652.7853409054392,60059
513.0020661157025,-653.2563802301026,59979
512.9896694214876,-653.7274423206482,60005
512.9772727272727,-654.1985271787216,59973
512.9648760330579,-654.6696348059774,59973
512.952479338843,-655.1407652040635,59915
512.9400826446281,-655.6119183746302,60014
512.9276859504132,-656.0830943193318,60012
512.9152892561983,-656.5542930398187,60062
512.9028925619834,-657.025514537743,59999
512.8904958677685,-657.4967588147529,59908
512.8780991735537,-657.9680258725026,60016
512.8657024793389,-658.4393157126403,59964
512.853305785124,-658.9106283368249,60083
512.8409090909091,-659.3819637467062,60011
512.8285123966942,-659.8533219439348,60021
512.8161157024794,-660.3247029301649,60031
512.8037190082645,-660.7961067070489,60049
512.7913223140496,-661.2675332762392,60018
512.7789256198347,-661.738982639388,60064
512.7665289256198,-662.21045479815,59991
512.7541322314049,-662.6819497541794,60008
512.74173553719,-663.1534675091266,59980
512.7293388429752,-663.6250080646481,59975
512.7169421487604,-664.0965714223919,60002
512.7045454545455,-664.5681575840213,60057
512.6921487603306,-665.0397665511841,59948
512.6797520661157,-665.5113983255394,60046
512.6673553719008,-665.983052908737,59979
512.654958677686,-666.4547303024339,59926
512.6425619834711,-666.9264305082844,60000
512.6301652892562,-667.398153527943,59988
512.6177685950413,-667.8698993630665,60064
512.6053719008264,-668.3416680153069,60044
512.5929752066115,-668.8134594863234,59957
512.5805785123966,-669.2852737777682,60090
512.5681818181819,-669.7571108912957,60000
512.555785123967,-670.2289708285691,60010
512.5433884297521,-670.7008535912408,60072
512.5309917355372,-671.1727591809653,60013
512.5185950413223,-671.6446875994013,60020
512.5061983471074,-672.1166388482035,60072
512.4938016528926,-672.5886129290304,60035
512.4814049586777,-673.0606098435369,59946
512.4690082644628,-673.5326295933814,59996
512.4566115702479,-674.004672180221,60100
512.444214876033,-674.476737605712,59923
512.4318181818181,-674.9488258715133,60052
512.4194214876034,-675.4209369792775,60058
512.4070247933885,-675.8930709306718,60002
512.3946280991736,-676.3652277273486,60080
512.3822314049587,-676.8374073709668,59978
512.3698347107438,-677.3096098631852,60038
512.3574380165289,-677.7818352056626,59997
512.345041322314,-678.2540834000556,60051
512.3326446280992,-678.7263544480253,60021
512.3202479338843,-679.1986483512305,60061
512.3078512396694,-679.670965111328,60031
512.2954545454545,-680.1433047299806,59983
512.2830578512396,-680.6156672088454,60020
512.2706611570248,-681.0880525495764,60015
512.25826446281,-681.560460753846,59926
512.2458677685951,-682.0328918233062,60030
512.2334710743802,-682.5053457596179,60069
512.2210743801653,-682.9778225644424,60039
512.2086776859504,-683.4503222394404,60020
512.1962809917355,-683.9228447862708,59938
512.1838842975206,-684.3953902065971,60065
512.1714876033058,-684.8679585020755,60047
512.1590909090909,-685.3405496743716,59995
512.146694214876,-685.8131637251463,59984
512.1342975206611,-686.2858006560584,60018
512.1219008264463,-686.7584604687646,59970
512.1095041322315,-687.2311431649391,60045
512.0971074380166,-687.7038487462382,59987
512.0847107438017,-688.176577214321,60045
512.0723140495868,-688.6493285708527,59986
512.0599173553719,-689.1221028174945,59982
512.047520661157,-689.5948999559092,60021
512.0351239669421,-690.0677199877604,59936
512.0227272727273,-690.5405629147086,60120
512.0103305785124,-691.0134287384196,59987
511.99793388429754,-691.4863174605521,60063
511.98553719008265,-691.9592290827756,60069
511.97314049586777,-692.432163606749,60030
511.9607438016529,-692.9051210341378,60018
511.948347107438,-693.3781013666028,60043
511.93595041322317,-693.8511046058137,60005
511.9235537190083,-694.3241307534272,60005
511.9111570247934,-694.7971798111174,60094
511.8987603305785,-695.2702517805409,60022
511.8863636363636,-695.7433466633629,60043
511.87396694214874,-696.2164644612533,60053
511.8615702479339,-696.6896051758686,59922
511.849173553719,-697.1627688088828,59998
511.83677685950414,-697.6359553619569,59974
511.82438016528926,-698.1091648367563,60040
511.81198347107437,-698.5823972349465,60019
511.7995867768595,-699.0556525581968,59981
511.78719008264466,-699.5289308081641,60041
511.77479338842977,-700.0022319865224,60067
511.7623966942149,-700.4755560949369,59952
511.75,-700.9489031350731,60040
511.7376033057851,-701.4222731085962,59954
511.72520661157023,-701.895666017176,59973
511.71280991735534,-702.3690818624777,60033
511.7004132231405,-702.8425206461625,59950
511.68801652892563,-703.3159823699084,59982
511.67561983471074,-703.7894670353768,59983
511.66322314049586,-704.262974644237,60001
511.650826446281,-704.7365051981503,59999
511.6384297520661,-705.2100586987949,59966
511.62603305785126,-705.6836351478319,60033
511.6136363636364,-706.1572345469307,59989
511.6012396694215,-706.6308568977613,59982
511.5888429752066,-707.1045022019888,59982
511.5764462809917,-707.5781704612874,59973
511.56404958677683,-708.0518616773223,59896
511.551652892562,-708.5255758517588,60024
511.5392561983471,-708.9993129862711,59909
511.52685950413223,-709.473073082533,59984
511.51446280991735,-709.9468561422013,60056
511.50206611570246,-710.4206621669587,59997
511.4896694214876,-710.894491158466,59973
511.47727272727275,-711.368343118393,59996
511.46487603305786,-711.8422180484182,60013
511.452479338843,-712.3161159502023,60033
511.4400826446281,-712.7900368254238,60040
511.4276859504132,-713.263980675748,60003
511.4152892561983,-713.7379475028447,59957
511.4028925619835,-714.2119373083877,59989
511.3904958677686,-714.6859500940512,59988
511.3780991735537,-715.1599858615004,59968
511.36570247933884,-715.6340446124094,59996
511.35330578512395,-716.1081263484477,59967
511.34090909090907,-716.5822310712896,60004
511.32851239669424,-717.0563587826045,59951
511.31611570247935,-717.5305094840709,60001
511.30371900826447,-718.0046831773541,59964
511.2913223140496,-718.478879864128,60041
511.2789256198347,-718.9530995460667,60025
511.2665289256198,-719.42734222484,60008
511.254132231405,-719.9016079021217,59986
511.2417355371901,-720.3758965795902,59972
511.2293388429752,-720.8502082589108,60019
511.2169421487603,-721.324542941762,60030
511.20454545454544,-721.7989006298177,60016
511.19214876033055,-722.2732813247476,59956
511.1797520661157,-722.7476850282213,59971
511.16735537190084,-723.2221117419259,60031
511.15495867768595,-723.6965614675267,60005
511.14256198347107,-724.1710342067022,59972
511.1301652892562,-724.6455299611217,59931
511.1177685950413,-725.1200487324639,59990
511.10537190082647,-725.5945905223983,60051
511.0929752066116,-726.069155332612,60047
511.0805785123967,-726.5437431647659,60026
511.0681818181818,-727.0183540205428,59989
511.0557851239669,-727.4929879016165,59978
511.04338842975204,-727.9676448096657,59941
511.0309917355372,-728.4423247463598,59965
511.0185950413223,-728.9170277133815,59935
511.00619834710744,-729.3917537124005,60004
510.99380165289256,-729.8665027450995,60023
510.9814049586777,-730.3412748131482,60045
510.9690082644628,-730.8160699182292,59977
510.95661157024796,-731.2908880620166,59976
510.9442148760331,-731.7657292461887,59919
510.9318181818182,-732.2405934724195,59946
510.9194214876033,-732.7154807423874,59935
510.9070247933884,-733.1903910577751,59953
510.89462809917353,-733.6653244202521,60050
510.8822314049587,-734.1402808314969,59994
510.8698347107438,-734.615260293192,60069
510.85743801652893,-735.0902628070161,59918
510.84504132231405,-735.5652883746428,60014
510.83264462809916,-736.040336997755,59940
510.8202479338843,-736.5154086780268,60016
510.80785123966945,-736.9905034171408,59991
510.79545454545456,-737.4656212167708,59986
510.7830578512397,-737.940762078604,59998
510.7706611570248,-738.4159260043102,60036
510.7582644628099,-738.8911129955762,59946
510.745867768595,-739.3663230540761,60108
510.7334710743802,-739.8415561814926,59983
510.7210743801653,-740.316812379504,60085
510.7086776859504,-740.7920916497928,60017
510.69628099173553,-741.2673939940378,60006
510.68388429752065,-741.7427194139213,60038
510.67148760330576,-742.2180679111175,60016
510.65909090909093,-742.6934394873133,60057
510.64669421487605,-743.1688341441871,59932
510.63429752066116,-743.6442518834216,59952
510.6219008264463,-744.1196927066951,60115
510.6095041322314,-744.5951566156903,59949
510.5971074380165,-745.0706436120942,60008
510.5847107438017,-745.5461536975765,59856
510.5723140495868,-746.0216868738243,59984
510.5599173553719,-746.4972431425288,60049
510.547520661157,-746.9728225053597,60018
510.53512396694214,-747.4484249640041,60011
510.52272727272725,-747.9240505201445,59908
510.5103305785124,-748.3996991754595,60042
510.49793388429754,-748.8753709316404,59968
510.48553719008265,-749.3510657903611,59896
510.47314049586777,-749.826783753313,59943
510.4607438016529,-750.3025248221744,59946
510.448347107438,-750.7782889986324,60005
510.43595041322317,-751.254076284361,59991
510.4235537190083,-751.7298866810559,59923
510.4111570247934,-752.2057201903954,59990
510.3987603305785,-752.681576814062,60070
510.3863636363636,-753.1574565537475,60013
510.37396694214874,-753.6333594111255,59981
510.3615702479339,-754.1092853878876,59966
510.349173553719,-754.5852344857163,59981
510.33677685950414,-755.0612067062988,60044
510.32438016528926,-755.5372020513176,60015
510.31198347107437,-756.01322052246,60018
510.2995867768595,-756.4892621214126,60019
510.28719008264466,-756.9653268498541,60073
510.27479338842977,-757.4414147094757,59995
510.2623966942149,-757.9175257019645,60011
510.25,-758.393659829003,60106
510.2376033057851,-758.8698170922785,60013
510.22520661157023,-759.3459974934822,59974
510.21280991735534,-759.8222010342923,60020
510.2004132231405,-760.2984277164005,59991
510.18801652892563,-760.7746775414892,59987
510.17561983471074,-761.2509505112541,59890
510.16322314049586,-761.727246627378,59985
510.150826446281,-762.2035658915436,60049
510.1384297520661,-762.6799083054422,60008
510.12603305785126,-763.1562738707652,60059
510.1136363636364,-763.6326625891951,59966
510.1012396694215,-764.1090744624191,60015
510.0888429752066,-764.5855094921328,60045
510.0764462809917,-765.061967680019,59947
510.06404958677683,-765.5384490277647,60040
510.051652892562,-766.0149535370612,60072
510.0392561983471,-766.4914812095953,60006
510.02685950413223,-766.9680320470632,59898
510.01446280991735,-767.4446060511472,60061
510.00206611570246,-767.9212032235343,60022
509.9896694214876,-768.3978235659204,59918
509.97727272727275,-768.8744670799924,59979
509.96487603305786,-769.3511337674418,59995
509.952479338843,-769.8278236299553,60068
509.9400826446281,-770.3045366692246,59995
509.9276859504132,-770.7812728869408,60076
509.9152892561983,-771.2580322847954,59984
509.9028925619835,-771.7348148644754,59952
509.8904958677686,-772.2116206276766,60026
509.8780991735537,-772.6884495760856,60023
509.86570247933884,-773.1653017113942,60019
509.85330578512395,-773.6421770352937,60019
509.84090909090907,-774.1190755494796,59989
509.82851239669424,-774.5959972556391,60034
509.81611570247935,-775.0729421554634,60049
509.80371900826447,-775.5499102506483,60069
509.7913223140496,-776.0269015428851,59988
509.7789256198347,-776.503916033865,60072
509.7665289256198,-776.9809537252797,60001
509.754132231405,-777.4580146188205,60030
509.7417355371901,-777.9350987161871,59980
509.7293388429752,-778.4122060190668,59998
509.7169421487603,-778.8893365291509,60040
509.70454545454544,-779.3664902481352,59964
509.69214876033055,-779.8436671777195,60013
509.6797520661157,-780.3208673195821,60019
509.66735537190084,-780.798090675432,60009
509.65495867768595,-781.2753372469562,59991
509.64256198347107,-781.7526070358501,60042
509.6301652892562,-782.2299000438096,60002
509.6177685950413,-782.7072162725217,59966
509.60537190082647,-783.1845557236908,60026
509.5929752066116,-783.6619183990038,60079
509.5805785123967,-784.139304300165,59988
509.5681818181818,-784.6167134288617,59982
509.5557851239669,-785.0941457867893,60039
509.54338842975204,-785.5716013756438,59963
509.5309917355372,-786.049080197125,59953
509.5185950413223,-786.5265822529243,60043
509.50619834710744,-787.0041075447418,59997
509.49380165289256,-787.4816560742687,60039
509.4814049586777,-787.9592278432052,60036
509.4690082644628,-788.4368228532426,60058
509.45661157024796,-788.9144411060809,60108
509.4442148760331,-789.39208260342,60058
509.4318181818182,-789.8697473469516,59924
509.4194214876033,-790.3474353383798,60053
509.4070247933884,-790.8251465793916,60027
509.39462809917353,-791.3028810716916,59953
509.3822314049587,-791.7806388169708,60010
509.3698347107438,-792.2584198169383,60016
509.35743801652893,-792.7362240732851,59965
509.34504132231405,-793.2140515877072,59995
509.33264462809916,-793.6919023619043,59960
509.3202479338843,-794.1697763975768,59980
509.30785123966945,-794.6476736964202,59944
509.29545454545456,-795.1255942601388,59971
509.2830578512397,-795.6035380904283,60012
509.2706611570248,-796.0815051889846,59987
509.2582644628099,-796.5594955575118,59975
509.245867768595,-797.0375091977057,60002
509.2334710743802,-797.5155461112664,59933
509.2210743801653,-797.9936062998938,59902
509.2086776859504,-798.4716897652925,59981
509.19628099173553,-798.9497965091579,60087
509.18388429752065,-799.4279265331901,60028
509.17148760330576,-799.9060798390893,59969
509.15909090909093,-800.3842564285554,59991
509.14669421487605,-800.8624563032928,60067
509.13429752066116,-801.3406794650014,60035
509.1219008264463,-801.8189259153814,59952
509.1095041322314,-802.2971956561371,59986
509.0971074380165,-802.7754886889599,59966
509.0847107438017,-803.2538050155628,59997
509.0723140495868,-803.7321446376415,60017
509.0599173553719,-804.2105075569002,59994
509.047520661157,-804.6888937750392,59965
509.03512396694214,-805.1673032937584,59997
509.02272727272725,-805.6457361147666,60053
509.0103305785124,-806.1241922397637,59960
508.99793388429754,-806.6026716704497,60068
508.98553719008265,-807.0811744085335,60029
508.97314049586777,-807.5597004557106,60053
508.9607438016529,-808.0382498136897,59985
508.948347107438,-808.516822484171,59936
508.93595041322317,-808.9954184688588,59967
508.9235537190083,-809.4740377694574,59960
508.9111570247934,-809.9526803876712,60001
508.8987603305785,-810.4313463252046,59921
508.8863636363636,-810.9100355837618,59953
508.87396694214874,-811.388748165043,59960
508.86157024793386,-811.867484070757,60009
508.849173553719,-812.346243302608,60003
508.83677685950414,-812.8250258623002,60047
508.82438016528926,-813.3038317515384,59987
508.81198347107437,-813.7826609720265,59969
508.7995867768595,-814.2615135254779,59928
508.78719008264466,-814.7403894135838,60013
508.77479338842977,-815.2192886380617,59942
508.7623966942149,-815.6982112006157,59936
508.75,-816.177157102946,60045
508.7376033057851,-816.6561263467657,60091
508.72520661157023,-817.1351189337748,59933
508.71280991735534,-817.6141348656863,59994
