-194.34305441739858	-0.11166666666666666
-194.79536075947718	-0.09
-195.24768859823178	0.008333333333333333
-195.70003793519538	0.055
-196.15240877190544	0.0760000000000097
-196.60480110989712	0.05566666666665696
-197.0572149506927	0.05800000000000485
-197.50965029583173	0.01800000000000485
-197.96210714684943	-0.033666666666661814
-198.41458550527886	-0.04033333333332848
-198.86708537264877	0.03766666666667637
-199.31960675049436	0.04199999999999515
-199.77214964035304	-0.05733333333332363
-200.22471404376003	0.021333333333338183
-200.6772999622419	0.043666666666661816
-201.12990739733607	0.02666666666666667
-201.58253635057773	0.11266666666667637
-202.03518682350864	0.14033333333332848
-202.48785881765102	0.1803333333333285
-202.9405523345444	0.06199999999999515
-203.39326737572623	0.08766666666667637
-203.8460039427339	0.04
-204.29876203709608	0.10733333333332364
-204.75154166035023	0.016666666666666666
-205.20434281403158	0.009333333333343035
-205.657165499684	0.0310000000000097
-206.1100097188319	0.05733333333332363
-206.5628754730148	0.08666666666666667
-207.01576276377017	0.05266666666667637
-207.4686715926397	0.09800000000000485
-207.92160196115	0.07333333333333333
-208.37455387084057	0.02266666666667637
-208.82752732325102	0.08133333333333818
-209.2805223199209	-0.025
-209.73353886238107	-0.0030000000000048508
-210.186576952169	-0.02733333333332363
-210.6396365908242	0.03133333333333818
-211.09271777988843	-0.052333333333323635
-211.5458205208926	-0.02666666666666667
-211.99894481537407	-0.007666666666676368
-212.45209066487462	0.014666666666671517
-212.90525807093158	-0.003999999999990299
-213.35844703508894	0.018333333333333333
-213.81165755887318	0.08733333333332363
-214.26488964382827	0.02733333333332363
-214.7181432914937	0.04533333333332848
-215.1714185034113	-0.018333333333333333
-215.62471528111405	-0.0030000000000048508
-216.07803362614374	0.011333333333338184
-216.53137354003772	-0.008666666666661816
-216.9847350243421	-0.0019999999999951493
-217.43811808058777	-0.02733333333332363
-217.8915227103186	0.04699999999999515
-218.3449489150742	-0.09566666666665696
-218.79839669639847	0.007666666666676368
-219.2518660558223	-0.041666666666666664
-219.7053569948917	-0.0010000000000097012
-220.15886951514634	-0.029333333333343033
-220.61240361813222	-0.075
-221.06595930538026	-0.05
-221.51953657843652	-0.043666666666661816
-221.9731354388406	-0.04066666666665696
-222.4267558881385	-0.06366666666666182
-222.88039792786336	-0.02733333333332363
-223.3340615595612	-0.022333333333323633
-223.78774678477382	-0.018666666666661814
-224.24145360504505	0.019666666666671516
-224.69518202191014	0.06666666666666667
-225.14893203691736	0.0410000000000097
-225.6027036516041	0.02800000000000485
-226.05649686752074	0.052333333333323635
-226.51031168620037	0.06366666666666182
-226.96414810918904	0.10366666666666181
-227.41800613802852	0.042666666666676366
-227.87188577426917	0.09300000000000486
-228.3257870194441	0.051666666666666666
-228.77970987510153	0.0439999999999903
-229.23365434278105	0.09966666666667151
-229.68762042403517	0.02699999999999515
-230.14160812039702	0.010333333333328483
-230.59561743341484	0.0889999999999903
-231.04964836463031	-0.013333333333333334
-231.50370091559606	-0.011333333333338184
-231.9577750878451	-0.105
-232.41187088292793	0.001333333333338184
-232.86598830238617	-0.0960000000000097
-233.32012734776816	0.058666666666661815
-233.7742880206199	-0.1253333333333285
-234.22847032247884	-0.0389999999999903
-234.68267425489535	-0.05266666666667637
-235.13689981941337	-0.05800000000000485
-235.59114701758327	-0.0310000000000097
-236.04541585094248	-0.04866666666666181
-236.49970632103924	-0.0010000000000097012
-236.95401842942178	0.015333333333328482
-237.40835217763833	-0.04733333333332363
-237.86270756722848	-0.004333333333343035
-238.31708459974044	-0.028999999999990297
-238.7714832767225	-0.006333333333338184
-239.22590359972503	0.06533333333332848
-239.68034557028543	0.07699999999999516
-240.13480918995845	0.08800000000000485
-240.58929446028583	0.044333333333343036
-241.04380138282232	0.04199999999999515
-241.49832995910532	0.03233333333332363
-241.9528801906874	0.04566666666665697
-242.4074520791168	-0.0310000000000097
-242.86204562594392	0.003666666666661816
-243.31666083271054	-0.029333333333343033
-243.771297700967	-0.06933333333334303
-244.2259562322616	-0.04466666666667152
-244.6806364281469	-0.06566666666665696
-245.13533829016242	0.021000000000009702
-245.59006181986516	0.06233333333332363
-246.04480701879896	0.0030000000000048508
-246.4995738885186	-0.04566666666665697
-246.95436243056577	-0.05466666666667152
-247.40917264649312	0.029333333333343033
-247.8640045378488	-0.019666666666671516
-248.31885810618982	0.035333333333328484
-248.7737333530535	-0.02
-249.22863027999898	-0.0239999999999903
-249.68354888857013	-0.003666666666661816
-250.13848918032602	0.009666666666671517
-250.59345115680628	-0.08566666666665697
-251.04843481956775	0.0006666666666569654
-251.5034401701587	-0.011666666666666667
-251.9584672101339	0.016333333333338185
-252.41351594103722	0.02033333333332848
-252.86858636442344	0.003666666666661816
-253.3236784818451	-0.027666666666676366
-253.77879229485046	0.05633333333333818
-254.23392780499861	0.07533333333332848
-254.6890850138291	0.04033333333332848
-255.14426392290102	0.09033333333332848
-255.59946453376477	0.08066666666665696
-256.0546868479773	0.0019999999999951493
-256.50993086708246	0.07133333333333819
-256.96519659263504	0.1510000000000097
-257.42048402618974	0.16266666666667637
-257.8757931693035	0.04766666666667637
-258.3311240235181	0.07100000000000971
-258.7864765903947	0.018333333333333333
-259.2418508714817	-0.023333333333333334
-259.6972468683423	0.003666666666661816
-260.15266458251625	-0.010666666666656966
-260.6081040155625	0.02666666666666667
-261.0635651690359	-0.04766666666667637
-261.51904804449543	0.05300000000000485
-261.97455264348514	0.043666666666661816
-262.43007896756177	0.05533333333332848
-262.88562701828454	0.012666666666676369
-263.34119679720595	0.07766666666667636
-263.7967883058765	0.04566666666665697
-264.25240154585515	0.11966666666667151
-264.70803651869454	0.14300000000000485
-265.16369322595375	-0.01800000000000485
-265.619371669181	0.0019999999999951493
-266.0750718499376	0.023333333333333334
-266.53079376977394	0.08666666666666667
-266.98653743025557	0.06366666666666182
-267.4423028329264	0.1413333333333382
-267.8980899793455	0.021666666666666667
-268.35389887107203	0.04866666666666181
-268.809729509665	-0.013333333333333334
-269.26558189667264	0.0439999999999903
-269.7214560336541	-0.06366666666666182
-270.1773519221706	0.0339999999999903
-270.6332695637768	0.017333333333323632
-271.0892089600255	0.0489999999999903
-271.5451701124777	0.012333333333323633
-272.0011530226883	0.04666666666666667
-272.45715769222284	0.09800000000000485
-272.91318412262734	0.07833333333333334
-273.3692323154632	0.13033333333332847
-273.8253022722893	0.03800000000000485
-274.28139399466926	0.175
-274.73750748415335	0.07166666666666667
-275.19364274230077	0.07933333333334304
-275.6497997706705	0.029666666666671518
-276.10597857082377	0.11433333333334303
-276.56217914432193	-0.056666666666666664
-277.0184014927153	-0.0006666666666569654
-277.47464561756743	0.030333333333328483
-277.9309115204373	0.10100000000000971
-278.38719920288827	0.095
-278.84350866647304	0.10766666666667636
-279.2998399127528	0.14
-279.75619294328885	0.07266666666667637
-280.21256775964673	0.09
-280.6689643633747	0.17733333333332363
-281.12538275604055	0.11933333333334303
-281.5818229392033	0.07933333333334304
-282.03828491442636	0.15166666666666667
-282.4947686832645	0.09
-282.951274247279	0.17333333333333334
-283.4078016080354	0.1539999999999903
-283.8643507670972	0.10800000000000486
-284.32092172601693	0.16833333333333333
-284.77751448636013	0.22133333333333818
-285.23412904968814	0.1786666666666618
-285.69076541756647	0.15866666666666182
-286.1474235915499	0.12333333333333334
-286.6041035732062	0.0639999999999903
-287.0608053640923	0.08766666666667637
-287.5175289657802	0.09633333333333818
-287.9742743798204	0.07199999999999515
-288.4310416077828	0.08566666666665697
-288.8878306512286	0.13966666666667152
-289.34464151172347	0.11466666666667152
-289.80147419082215	0.1310000000000097
-290.2583286900945	0.0839999999999903
-290.715205011104	0.043000000000004854
-291.17210315541405	0.051333333333338185
-291.62902312458584	0.05199999999999515
-292.0859649201829	0.10166666666666667
-292.54292854377076	0.01199999999999515
-292.99991399691714	0.003666666666661816
-293.45692128117906	-0.021333333333338183
-293.91395039812414	0.05266666666667637
-294.3710013493181	-0.014666666666671517
-294.8280741363286	0.043666666666661816
-295.2851687607126	0.05566666666665696
-295.74228522404	0.14
-296.1994235278743	0.13733333333332362
-296.65658367378524	0.26
-297.1137656633321	0.15333333333333332
-297.57096949808255	0.16366666666666183
-298.02819517960216	0.13300000000000486
-298.48544270945877	0.09133333333333818
-298.9427120892222	0.14199999999999516
-299.40000332044724	0.06533333333332848
-299.8573164047082	0.24766666666667636
-300.3146513435705	0.14033333333332848
-300.7720081386043	0.08699999999999515
-301.22938679136854	0.04466666666667152
-301.68678730343316	0.12866666666666182
-302.1442096763681	0.13
-302.60165391174115	0.06
-303.0591200111157	0.14333333333333334
-303.51660797605945	0.05366666666666182
-303.97411780814025	0.12366666666666182
-304.43164950893447	0.1160000000000097
-304.88920307999683	0.21833333333333332
-305.34677852290173	0.10066666666665697
-305.80437583921673	0.021000000000009702
-306.2619950305163	0.1736666666666618
-306.71963609835933	0.06666666666666667
-307.1772990443202	0.13533333333332848
-307.63498386996446	0.14633333333333817
-308.0926905768685	0.13333333333333333
-308.5504191665915	0.0030000000000048508
-309.00816964070987	0.05633333333333818
-309.4659420007891	0.09133333333333818
-309.92373624840354	0.13300000000000486
-310.3815523851166	0.04
-310.8393904125025	0.0989999999999903
-311.2972503321312	0.11966666666667151
-311.7551321455748	0.135
-312.21303585439887	0.0310000000000097
-312.6709614601733	0.005666666666656966
-313.12890896447465	0.03199999999999515
-313.58687836887265	0.10966666666667152
-314.0448696749352	0.06333333333333334
-314.50288288423224	0.03666666666666667
-314.9609179983401	0.06933333333334303
-315.41897501882875	0.07300000000000485
-315.8770539472681	0.12566666666665696
-316.3351547852281	0.058999999999990296
-316.79327753428515	0.04233333333332363
-317.2514221960114	0.1310000000000097
-317.70958877197455	-0.0006666666666569654
-318.16777726374886	0.043000000000004854
-318.62598767290865	0.14
-319.08422000102377	0.051333333333338185
-319.54247424967286	0.04699999999999515
-320.00075042041937	0.17166666666666666
-320.45904851484397	0.14
-320.9173685345167	0.11233333333332363
-321.3757104810161	0.14466666666667152
-321.8340743559077	0.15433333333334304
-322.2924601607681	0.10766666666667636
-322.7508678971735	0.026333333333338184
-323.20929756669835	0.07100000000000971
-323.6677491709125	0.07333333333333333
-324.1262227113924	0.11766666666667637
-324.58471818971447	0.05366666666666182
-325.04323560745513	0.0639999999999903
-325.50177496617994	0.05966666666667152
-325.96033626746976	0.043333333333333335
-326.4189195129009	0.013999999999990298
-326.87752470405206	-0.012666666666676369
-327.33615184248663	0.051666666666666666
-327.7948009297897	0.0410000000000097
-328.25347196753336	0.05366666666666182
-328.7121649573005	0.08366666666666181
-329.17087990065465	0.01199999999999515
-329.6296167991787	0.11933333333334303
-330.0883756544512	0.18333333333333332
-330.5471564680486	0.034666666666671515
-331.0059592415409	0.10833333333333334
-331.4647839765066	0.07133333333333819
-331.9236306745287	0.050666666666656965
-332.3824993371814	0.07933333333334304
-332.841389966039	0.049333333333343034
-333.30030256268014	0.06766666666667637
-333.75923712868115	0.025666666666656967
-334.2181936656272	0.045
-334.67717217508607	0.06533333333332848
-335.13617265863843	0.06966666666667151
-335.59519511786516	0.029666666666671518
-336.05423955434696	0.008999999999990299
-336.5133059696538	0.07633333333333818
-336.9723943653707	0.0033333333333333335
-337.431504743072	0.012666666666676369
-337.89063710434493	0.015
-338.3497914507573	0.013999999999990298
-338.80896778389416	0.012666666666676369
-339.2681661053341	-0.006666666666666667
-339.72738641665796	-0.12166666666666667
-340.18662871944645	0.06800000000000485
-340.6458930152738	0.07733333333332364
-341.10517930572087	0.14966666666667153
-341.56448759237264	0.06166666666666667
-342.0238178768078	0.095
-342.48317016060497	0.06833333333333333
-342.9425444453427	0.0639999999999903
-343.4019407326039	0.0189999999999903
-343.86135902397376	0.07733333333332364
-344.3207993210264	0.021666666666666667
-344.7802616253449	0.0989999999999903
-345.23974593850994	0.07666666666666666
-345.69925226211103	0.12466666666667152
-346.15878059771586	-0.0016666666666666668
-346.6183309469139	0.09699999999999515
-347.0779033112881	-0.0030000000000048508
-347.5374976924213	0.10866666666666182
-347.99711409189007	0.06566666666665696
-348.4567525112773	0.0810000000000097
-348.91641295217016	0.059333333333343036
-349.37609541615393	0.1313333333333382
-349.8357999048005	0.075
-350.2955264196995	0.03666666666666667
-350.7552749624338	0.0030000000000048508
-351.21504553458846	0.08466666666667151
-351.6748381377421	0.015
-352.13465277347984	0.09366666666666182
-352.59448944338675	0.07066666666665697
-353.05434814905016	-0.019666666666671516
-353.51422889204645	0.0610000000000097
-353.9741316739629	0.06233333333332363
-354.43405649638464	0.08233333333332363
-354.8940033608989	0.13
-355.35397226908435	0.14199999999999516
-355.8139632225282	0.03933333333334303
-356.2739762228155	0.0760000000000097
-356.73401127153585	0.09066666666665696
-357.19406837026554	0.04866666666666181
-357.65414752059405	0.07833333333333334
-358.1142487241087	0.045
-358.5743719823988	0.0010000000000097012
-359.0345172970388	0.03699999999999515
-359.49468466962236	0.11066666666665696
-359.95487410173456	0.12433333333334304
-360.4150855949649	0.09300000000000486
-360.875319150892	0.1
-361.3355747711074	0.022333333333323633
-361.79585245719625	0.056666666666666664
-362.25615221074577	0.10766666666667636
-362.7164740333498	0.028999999999990297
-363.17681792658476	0.035
-363.63718389204223	0.06199999999999515
-364.09757193130946	0.15833333333333333
-364.5579820459781	0.06833333333333333
-365.01841423763113	0.07933333333334304
-365.47886850785574	0.09266666666667636
-365.93934485824354	0.03199999999999515
-366.399843290384	0.1436666666666618
-366.8603638058601	0.12866666666666182
-367.32090640626336	0.02
-367.78147109318115	0.010333333333328483
-368.24205786820716	-0.010666666666656966
-368.70266673292434	0.058999999999990296
-369.16329768892433	0.05699999999999515
-369.6239507377966	0.0660000000000097
-370.08462588113264	0.12933333333334304
-370.54532312051765	0.02
-371.00604245754323	0.006333333333338184
-371.46678389379883	0.11033333333332848
-371.92754743088034	0.04766666666667637
-372.38833307036856	0.08633333333333819
-372.84914081385944	-0.07433333333334304
-373.3099706629424	-0.01699999999999515
-373.7708226192113	0.06233333333332363
-374.23169668424896	0.08866666666666181
-374.69259285965353	0.023333333333333334
-375.15351114701235	-0.0019999999999951493
-375.6144515479234	0.0006666666666569654
-376.07541406396757	-0.017666666666676368
-376.53639869674294	-0.008666666666661816
-376.9974054478411	0.015
-377.45843431885584	-0.017666666666676368
-377.91948531137444	-0.0016666666666666668
-378.38055842698844	0.03733333333332363
-378.84165366729604	0.035333333333328484
-379.30277103388886	0.03333333333333333
-379.7639105283541	0.015
-380.22507215228774	-0.06699999999999515
-380.68625590728135	0.022333333333323633
-381.1474617949353	-0.09533333333332848
-381.6086898168324	-0.07066666666665697
-382.06993997457306	-0.10266666666667637
-382.5312122697467	-0.04566666666665697
-382.9925067039492	-0.003999999999990299
-383.45382327877866	-0.033666666666661814
-383.9151619958224	-0.0003333333333284827
-384.3765228566743	0.025333333333328482
-384.83790586293225	-0.022333333333323633
-385.2993110161967	-0.01699999999999515
-385.76073831804837	0.035666666666656965
-386.22218777009186	0.09566666666665696
-386.68365937391667	-0.019666666666671516
-387.14515313112736	0.03800000000000485
-387.60666904330685	0.025666666666656967
-388.0682071120576	-0.014333333333343034
-388.52976733897566	0.0839999999999903
-388.99134972565685	-0.033666666666661814
-389.4529542736928	0.027666666666676366
-389.9145809846795	0.0
-390.3762298602194	-0.08533333333332849
-390.83790090190627	0.016333333333338185
-391.2995941113338	-0.04699999999999515
-391.7613094900981	-0.005333333333328483
-392.22304703979927	0.005
-392.68480676203774	-0.0339999999999903
-393.1465886584029	0.0030000000000048508
-393.608392730495	-0.006333333333338184
-394.07021897991	0.049666666666671515
-394.53206740825254	0.004666666666671517
-394.99393801711204	-0.03233333333332363
-395.4558308080888	-0.0739999999999903
-395.91774578278097	0.03266666666667637
-396.37968294279096	0.013000000000004851
-396.84164228971036	0.050333333333328484
-397.3036238251394	0.08033333333332848
-397.7656275506785	0.04533333333332848
-398.22765346793005	0.006666666666666667
-398.68970157848565	-0.006666666666666667
-399.15177188394773	0.02699999999999515
-399.61386438591444	0.0310000000000097
-400.07597908599257	0.03199999999999515
-400.53811598576937	0.0660000000000097
-401.0002750868516	0.09133333333333818
-401.4624563908375	0.12466666666667152
-401.92465989933146	0.07666666666666666
-402.38688561392746	-0.005333333333328483
-402.8491335362279	0.14633333333333817
-403.3114036678331	-0.06766666666667637
-403.7736960103475	0.03133333333333818
-404.2360105653672	-0.0003333333333284827
-404.69834733449255	0.03933333333334303
-405.160706319328	0.105
-405.6230875214739	0.04766666666667637
-406.08549094253493	0.050333333333328484
-406.54791658410477	0.15733333333332364
-407.01036444779027	0.04666666666666667
-407.47283453519384	-0.01699999999999515
-407.93532684791796	-0.0006666666666569654
-408.3978413875608	0.025666666666656967
-408.86037815572683	0.014666666666671517
-409.3229371540164	0.07833333333333334
-409.78551838404076	0.08
-410.2481218473935	0.02699999999999515
-410.7107475456772	0.04766666666667637
-411.1733954805007	0.09666666666666666
-411.63606565346873	0.006666666666666667
-412.0987580661772	-0.02666666666666667
-412.5614727202328	0.025666666666656967
-413.02420961724033	-0.041666666666666664
-413.4869687588065	0.004333333333343035
-413.9497501465272	-0.04066666666665696
-414.41255378201356	0.07300000000000485
-414.87537966686597	0.07933333333334304
-415.3382278026954	0.07433333333334304
-415.801098191098	0.05
-416.2639908336825	-0.012333333333323633
-416.7269057320537	0.04033333333332848
-417.1898428878204	-0.018666666666661814
-417.6528023025808	-0.020666666666656966
-418.1157839779439	-0.051000000000009704
-418.57878791551644	-0.0389999999999903
-419.0418141169052	0.04533333333332848
-419.5048625837104	0.07066666666665697
-419.9679333175411	0.051333333333338185
-420.4310263200041	0.04466666666667152
-420.8941415927104	0.06133333333333819
-421.3572791372561	0.015333333333328482
-421.82043895525436	-0.027666666666676366
-422.28362104831206	0.0239999999999903
-422.74682541803804	-0.006333333333338184
-423.21005206603274	-0.02266666666667637
-423.67330099390716	0.051333333333338185
-424.13657220326814	0.10866666666666182
-424.59986569572897	0.07433333333334304
-425.0631814728878	0.07366666666666181
-425.5265195363578	0.15933333333334304
-425.9898798877459	0.19266666666667637
-426.45326252866096	0.042666666666676366
-426.9166674607163	-0.002333333333323632
-427.3800946855101	0.07066666666665697
-427.84354420465553	0.03300000000000485
-428.3070160197638	-0.002666666666676368
-428.770510132446	0.005666666666656966
-429.2340265443025	0.004333333333343035
-429.69756525694646	0.011333333333338184
-430.16112627199124	-0.005666666666656966
-430.62470959104576	-0.004333333333343035
-431.08831521571466	0.021000000000009702
-431.5519431476091	0.042666666666676366
-432.0155933883424	0.058666666666661815
-432.4792659395277	0.049333333333343034
-432.9429608027654	-0.051000000000009704
-433.4066779796732	-0.01800000000000485
-433.87041747185987	-0.05433333333334303
-434.334179280941	0.015666666666656965
-434.7979634085168	0.028999999999990297
-435.26176985620714	0.03300000000000485
-435.72559862562093	0.07033333333332849
-436.1894497183737	0.12366666666666182
-436.6533231360678	0.057666666666676365
-437.1172188803209	-0.035333333333328484
-437.5811369527441	0.0019999999999951493
-438.0450773549529	-0.007666666666676368
-438.5090400885541	-0.06866666666666181
-438.973025155161	-0.0010000000000097012
-439.43703255638684	0.06533333333332848
-439.90106229384924	0.028999999999990297
-440.36511436915504	0.06266666666667636
-440.82918878391536	0.0310000000000097
-441.29328553975	0.023666666666661815
-441.7574046382722	-0.028333333333333332
-442.2215460810888	-0.018666666666661814
-442.68570986981524	0.029666666666671518
-443.1498960060691	0.04800000000000485
-443.614104491466	0.034666666666671515
-444.07833532761254	-0.006666666666666667
-444.5425885161265	0.06766666666667637
-445.00686405862325	0.020666666666656966
-445.4711619567226	0.007666666666676368
-445.935482212027	-0.03166666666666667
-446.3998248261584	0.04133333333333818
-446.8641898007302	0.06
-447.3285771373643	0.050333333333328484
-447.79298683766524	0.07333333333333333
-448.25741890325503	0.09433333333334304
-448.72187333574703	0.025666666666656967
-449.18635013675885	-0.03699999999999515
-449.65084930790806	0.045
-450.11537085080585	0.0033333333333333335
-450.5799147670698	-0.008999999999990299
-451.04448105831756	0.04633333333333818
-451.5090697261711	-0.026333333333338184
-451.97368077223723	-0.03866666666666182
-452.4383141981357	-0.0160000000000097
-452.90297000548634	-0.10833333333333334
-453.36764819590894	-0.08600000000000971
-453.8323487710146	-0.09166666666666666
-454.29707173242315	-0.10366666666666181
-454.7618170817522	-0.11666666666666667
-455.22658482062377	-0.07766666666667636
-455.6913749506467	-0.06833333333333333
-456.15618747344746	-0.007333333333323632
-456.6210223906392	-0.09199999999999516
-457.0858797038461	-0.05633333333333818
-457.55075941468147	0.030666666666656964
-458.01566152476505	0.03266666666667637
-458.48058603571457	-0.04866666666666181
-458.9455329491584	0.03266666666667637
-459.41050226670126	0.07533333333332848
-459.8754939899715	0.025
-460.3405081205869	-0.0610000000000097
-460.80554466017145	-0.02733333333332363
-461.27060361033637	-0.018666666666661814
-461.7356849727057	-0.008666666666661816
-462.2007887489016	-0.06
-462.66591494054575	-0.09733333333332363
-463.1310635492517	0.09
-463.5962345766456	-0.06233333333332363
-464.0614280243451	0.05300000000000485
-464.5266438939766	-0.015333333333328482
-464.9918821871533	0.014666666666671517
-465.45714290550154	0.00800000000000485
-465.92242605064325	0.1110000000000097
-466.3877316242004	-0.08433333333334303
-466.8530596277885	-0.05699999999999515
-467.318410063036	0.0660000000000097
-467.7837829315627	-0.09633333333333818
-468.24917823499277	-0.06133333333333819
-468.71459597494373	-0.036333333333338186
-469.18003615304195	-0.005666666666656966
-469.64549877090946	0.0489999999999903
-470.1109838301681	0.115
-470.57649133244644	0.017666666666676368
-471.0420212793577	0.07033333333332849
-471.5075736725304	0.05699999999999515
-471.9731485135887	0.010666666666656966
-472.4387458041588	-0.001333333333338184
-472.90436554585847	0.0019999999999951493
-473.37000774031173	0.013333333333333334
-473.83567238914713	0.01699999999999515
-474.3013594939909	0.005333333333328483
-474.7670690564607	0.01800000000000485
-475.2328010781829	-0.0010000000000097012
-475.6985555607837	0.017333333333323632
-476.16433250588943	-0.05300000000000485
-476.6301319151221	0.0016666666666666668
-477.0959537901058	0.02033333333332848
-477.561798132469	0.11533333333332849
-478.0276649438424	0.10533333333332848
-478.49355422583926	0.1060000000000097
-478.9594659800923	-0.015333333333328482
-479.4254002082258	-0.026333333333338184
-479.89135691187255	-0.010333333333328483
-480.3573360926479	-0.0639999999999903
-480.8233377521847	-0.13466666666667151
-481.28936189210935	-0.07833333333333334
-481.7554085140502	-0.0489999999999903
-482.22147761962714	0.0033333333333333335
-482.6875692104729	0.03300000000000485
-483.1536832882138	0.06633333333333818
-483.61981985448057	0.0539999999999903
-484.08597891089505	0.08733333333332363
-484.5521604590836	0.043666666666661816
-485.0183645006812	0.06933333333334303
-485.48459103731415	0.08933333333334303
-485.9508400706044	0.07066666666665697
-486.4171116021848	0.04133333333333818
-486.88340563368376	0.0910000000000097
-487.3497221667342	0.03966666666667152
-487.81606120295794	0.05800000000000485
-488.28242274398355	0.02266666666667637
-488.74880679144593	0.03699999999999515
-489.21521334697366	0.08866666666666181
-489.6816424121908	0.08800000000000485
-490.14809398872796	0.016666666666666666
-490.6145680782202	0.027666666666676366
-491.08106468229596	0.006333333333338184
-491.54758380257937	-0.0410000000000097
-492.0141254407076	0.04
-492.48068959830687	0.11666666666666667
-492.94727627700786	0.09066666666665696
-493.41388547844775	0.08800000000000485
-493.8805172042485	0.105
-494.34717145604293	0.04533333333332848
-494.813848235466	0.07333333333333333
-495.2805475441505	0.05966666666667152
-495.74726938372055	0.10100000000000971
-496.2140137558112	0.09266666666667636
-496.68078066205516	0.058999999999990296
-497.1475701040875	0.01699999999999515
-497.6143820835323	0.023333333333333334
-498.0812166020267	0.10033333333332849
-498.54807366120355	0.10300000000000485
-499.0149532626978	0.05800000000000485
-499.48185540813364	0.0160000000000097
-499.94878009915027	0.049333333333343034
-500.4157273373806	-0.03866666666666182
-500.8826971244617	0.034333333333343034
-501.3496894620156	-0.056666666666666664
-501.8167043516837	-0.015333333333328482
-502.28374179509893	0.02699999999999515
-502.75080179389835	0.0310000000000097
-503.21788434970614	0.019666666666671516
-503.6849894641659	0.07566666666665696
-504.15211713890614	0.105
-504.6192673755683	0.07966666666667152
-505.0864401757787	0.1413333333333382
-505.5536355411745	0.05366666666666182
-506.02085347339505	0.13966666666667152
-506.48809397407314	0.1389999999999903
-506.9553570448415	0.2263333333333382
-507.4226426873352	0.1089999999999903
-507.8899509031935	0.1486666666666618
-508.35728169405576	0.10333333333333333
-508.8246350615461	0.08600000000000971
-509.2920110073081	0.09533333333332848
-509.7594095329768	0.085
-510.22683064019367	0.165
-510.6942743305851	0.14466666666667152
-511.1617406057946	0.08199999999999515
-511.62922946745715	0.15866666666666182
-512.0967409172122	0.2313333333333382
-512.5642749566924	0.21633333333333818
-513.0318315875372	0.2646666666666715
-513.4994108113838	0.23966666666667152
-513.9670126298691	0.3836666666666618
-514.4346370446391	0.4116666666666667
-514.9022840573178	0.4986666666666618
-515.3699536695513	0.5660000000000097
-515.8376458829763	0.66
-516.3053606992369	0.7676666666666764
-516.7730981199612	0.995
-517.2408581467931	1.2276666666666765
-517.7086407813741	1.5713333333333381
-518.1764460253412	2.1563333333333383
-518.6442738803315	2.8010000000000095
-519.1121243479846	3.746333333333338
-519.5799974299438	4.58399999999999
-520.0478931278486	5.280333333333329
-520.5158114433318	5.825333333333329
-520.9837523780393	5.928666666666662
-521.4517159336124	5.435
-521.9197021116904	4.642666666666677
-522.3877109139106	3.8496666666666717
-522.8557423419145	3.034333333333343
-523.3237963973435	2.286333333333338
-523.7918730818434	1.6580000000000048
-524.2599723970492	1.2896666666666716
-524.7280943446024	1.0546666666666715
-525.1962389261444	0.7563333333333382
-525.6644061433254	0.5296666666666715
-526.132595997774	0.5866666666666667
-526.6008084911402	0.44166666666666665
-527.0690436250634	0.3769999999999952
-527.5373014011916	0.26300000000000484
-528.0055818211553	0.1963333333333382
-528.4738848866069	0.1310000000000097
-528.9422105991858	0.16800000000000484
-529.4105589605377	0.1639999999999903
-529.8789299722998	0.12466666666667152
-530.3473236361201	0.2103333333333285
-530.8157399536378	0.14833333333333334
-531.2841789265054	0.1963333333333382
-531.7526405563557	0.22966666666667152
-532.2211248448366	0.12433333333334304
-532.6896317935916	0.115
-533.1581614042711	0.075
-533.6267136785101	0.06
-534.0952886179564	0.09966666666667151
-534.5638862242538	0.05533333333332848
-535.0325064990544	0.05199999999999515
-535.5011494439935	0.05966666666667152
-535.9698150607188	0.08133333333333818
-536.4385033508763	0.11233333333332363
-536.9072143161118	0.11866666666666181
-537.3759479580754	0.09633333333333818
-537.8447042784043	0.0310000000000097
-538.3134832787485	0.06199999999999515
-538.782284960754	0.045
-539.251109326071	0.01199999999999515
-539.7199563763363	-0.04066666666665696
-540.1888261132026	0.00800000000000485
-540.6577185383156	0.030666666666656964
-541.1266336533254	0.006333333333338184
-541.5955714598736	-0.0006666666666569654
-542.0645319596101	-0.12633333333333818
-542.533515154181	-0.028333333333333332
-543.0025210452385	-0.06066666666665697
-543.471549634422	-0.019666666666671516
-543.9406009233837	0.004333333333343035
-544.4096749137716	-0.05333333333333334
-544.8787716072381	-0.0019999999999951493
-545.3478910054247	0.0639999999999903
-545.8170331099792	0.009666666666671517
-546.2861979225542	-0.04833333333333333
-546.7553854448018	-0.001333333333338184
-547.2245956783636	0.01
-547.6938286248898	-0.056666666666666664
-548.1630842860326	-0.010666666666656966
-548.6323626634443	0.043333333333333335
-549.1016637587664	0.014333333333343034
-549.5709875736515	0.028333333333333332
-550.0403341097515	0.0760000000000097
-550.5097033687211	0.06966666666667151
-550.9790953521997	0.08033333333332848
-551.4485100618417	-0.018666666666661814
-551.9179474992993	-0.016666666666666666
-552.3874076662273	0.002666666666676368
-552.8568905642691	-0.029666666666671518
-553.326396195077	-0.02699999999999515
-553.7959245603034	0.03733333333332363
-554.2654756616051	-0.0460000000000097
-554.7350495006234	0.04033333333332848
-555.2046460790151	0.0003333333333284827
-555.6742653984302	0.015666666666656965
-556.1439074605275	0.04066666666665696
-556.6135722669509	0.06266666666667636
-557.0832598193547	0.019666666666671516
-557.5529701193913	0.11800000000000485
-558.0227031687151	0.05366666666666182
-558.4924589689829	-0.017333333333323632
-558.9622375218382	0.0410000000000097
-559.4320388289378	0.07166666666666667
-559.901862891936	0.09166666666666666
-560.3717097124897	0.049333333333343034
-560.8415792922447	0.1713333333333382
-561.3114716328574	0.020666666666656966
-561.7813867359847	0.03233333333332363
-562.2513246032833	0.008333333333333333
-562.7212852363965	0.08566666666665697
-563.1912686369857	0.016333333333338185
-563.6612748067051	-0.021333333333338183
-564.1313037472138	-0.05433333333334303
-564.6013554601575	-0.004666666666671517
-565.0714299471971	0.0410000000000097
-565.5415272099829	0.004333333333343035
-566.0116472501801	-0.010333333333328483
-566.4817900694323	0.025666666666656967
-566.9519556694008	0.0060000000000097016
-567.4221440517421	-0.03333333333333333
-567.8923552181149	0.03766666666667637
-568.3625891701673	0.023333333333333334
-568.8328459095582	0.009666666666671517
-569.3031254379463	-0.04466666666667152
-569.7734277569925	0.016333333333338185
-570.2437528683452	0.06166666666666667
-570.7141007736628	-0.014333333333343034
-571.1844714746044	0.01800000000000485
-571.6548649728329	-0.0939999999999903
-572.1252812699944	-0.10533333333332848
-572.5957203677541	-0.10033333333332849
-573.0661822677644	-0.0360000000000097
-573.5366669716926	-0.07966666666667152
-574.007174481187	-0.09333333333333334
-574.4777047979082	0.007666666666676368
-574.9482579235155	-0.02266666666667637
-575.4188338596717	0.01800000000000485
-575.889432608027	-0.004333333333343035
-576.360054170247	0.044333333333343036
-576.8306985479859	-0.020666666666656966
-577.3013657429113	-0.03966666666667152
-577.7720557566712	-0.0010000000000097012
-578.242768590931	-0.004666666666671517
-578.7135042473494	0.049333333333343034
-579.1842627275896	0.09300000000000486
-579.6550440333061	0.04533333333332848
-580.1258481661622	0.03
-580.5966751278165	0.0239999999999903
-581.0675249199302	0.014333333333343034
-581.5383975441686	-0.05966666666667152
-582.0092930021859	-0.055
-582.4802112956436	-0.01699999999999515
-582.9511524262044	-0.07166666666666667
-583.422116395534	0.058333333333333334
-583.8931032052844	0.08600000000000971
-584.3641128571234	0.04133333333333818
-584.8351453527096	0.06533333333332848
-585.3062006937128	0.029666666666671518
-585.7772788817853	0.0539999999999903
-586.2483799185924	0.006666666666666667
-586.7195038057973	0.029333333333343033
-587.1906505450675	-0.017666666666676368
-587.6618201380553	0.04866666666666181
-588.1330125864282	-0.0033333333333333335
-588.6042278918516	0.03333333333333333
-589.0754660559908	-0.0739999999999903
-589.5467270805024	-0.09800000000000485
-590.0180109670519	-0.10333333333333333
-590.4893177173043	-0.10233333333332363
-590.9606473329275	-0.0360000000000097
-591.4319998155779	-0.0939999999999903
-591.9033751669209	-0.02033333333332848
-592.3747733886241	-0.04466666666667152
-592.8461944823549	0.10966666666667152
-593.3176384497699	0.10366666666666181
-593.7891052925389	-0.0030000000000048508
-594.2605950123251	0.0033333333333333335
-594.732107610798	0.07833333333333334
-595.2036430896144	-0.0610000000000097
-595.6752014504461	-0.03966666666667152
-596.1467826949563	-0.020666666666656966
-596.6183868248166	-0.018333333333333333
-597.090013841684	-0.03333333333333333
-597.5616637472281	-0.0760000000000097
-598.0333365431163	0.020666666666656966
-598.5050322310183	-0.030333333333328483
-598.9767508125929	-0.12166666666666667
-599.4484922895119	0.005
-599.9202566634386	-0.051333333333338185
-600.3920439360492	-0.07199999999999515
-600.863854108998	-0.011666666666666667
-601.3356871839613	-0.041666666666666664
-601.8075431626023	0.015333333333328482
-602.2794220465906	-0.08300000000000485
-602.7513238376002	-0.10733333333332364
-603.2232485372857	-0.018666666666661814
-603.6951961473254	0.0
-604.1671666693824	-0.028999999999990297
-604.6391601051329	-0.028666666666661816
-605.1111764562378	-0.029333333333343033
-605.583215724367	-0.005666666666656966
-606.05527791119	-0.0030000000000048508
-606.5273630183831	-0.058666666666661815
-606.999471047605	-0.011333333333338184
-607.4716020005297	0.034333333333343034
-607.943755878825	-0.035666666666656965
-608.4159326841688	-0.0003333333333284827
-608.8881324182223	-0.0889999999999903
-609.3603550826554	-0.06733333333332363
-609.8326006791439	-0.06233333333332363
-610.3048692093575	-0.005666666666656966
-610.7771606749619	-0.0610000000000097
-611.2494750776308	-0.11966666666667151
-611.721812419036	-0.004666666666671517
-612.1941727008518	-0.0539999999999903
-612.6665559247411	-0.05533333333332848
-613.1389620923824	-0.006999999999995149
-613.611391205443	-0.004666666666671517
-614.0838432656016	-0.036333333333338186
-614.5563182745187	0.008999999999990299
-615.0288162338753	0.07133333333333819
-615.5013371453408	0.029333333333343033
-615.9738810105914	-0.03333333333333333
-616.4464478312925	0.03699999999999515
-616.9190376091203	0.025333333333328482
-617.3916503457488	-0.014333333333343034
-617.864286042854	-0.005
-618.3369447021014	0.12033333333332848
-618.8096263251693	0.13766666666667637
-619.2823309137297	0.11933333333334303
-619.7550584694607	0.07199999999999515
-620.2278089940298	0.02033333333332848
-620.7005824891135	0.057666666666676365
-621.1733789563854	-0.012666666666676369
-621.6461983975241	-0.03866666666666182
-622.1190408141993	0.013000000000004851
-622.5919062080848	0.015666666666656965
-623.0647945808612	0.06766666666667637
-623.5377059342026	-0.023666666666661815
-624.0106402697763	0.07033333333332849
-624.4835975892653	0.017333333333323632
-624.9565778943412	0.051666666666666666
-625.4295811866824	0.01
-625.9026074679693	0.07433333333334304
-626.3756567398653	0.03800000000000485
-626.8487290040574	0.035333333333328484
-627.321824262215	0.19366666666666182
-627.7949425160232	0.0160000000000097
-628.2680837671494	0.08666666666666667
-628.7412480172742	0.13966666666667152
-629.2144352680758	0.07066666666665697
-629.6876455212326	-0.020666666666656966
-630.1608787784166	0.08033333333332848
-630.6341350413081	0.03266666666667637
-631.1074143115856	0.0939999999999903
-631.5807165909295	0.03133333333333818
-632.0540418810094	0.08266666666667637
-632.5273901835083	0.03966666666667152
-633.0007615001064	0.034666666666671515
-633.4741558324843	-0.04733333333332363
-633.9475731823117	-0.09666666666666666
-634.4210135512734	-0.0560000000000097
-634.8944769410457	-0.043666666666661816
-635.3679633533155	-0.07699999999999516
-635.8414727897504	-0.04199999999999515
-636.315005252035	-0.1439999999999903
-636.7885607418502	0.012333333333323633
-637.2621392608784	-0.042666666666676366
-637.7357408107915	0.006666666666666667
-638.2093653932745	-0.11766666666667637
-638.6830130100077	-0.013333333333333334
-639.1566836626739	0.04633333333333818
-639.6303773529492	-0.10366666666666181
-640.104094082512	0.01699999999999515
-640.5778338530494	-0.005333333333328483
-641.0515966662439	0.03733333333332363
-641.5253825237696	0.03800000000000485
-641.9991914273114	0.07066666666665697
-642.4730233785497	0.056666666666666664
-642.9468783791716	-0.0016666666666666668
-643.4207564308512	0.011333333333338184
-643.894657535273	-0.005333333333328483
-644.3685816941202	0.04666666666666667
-644.8425289090794	0.045
-645.3164991818247	0.026000000000009703
-645.7904925140433	-0.03
-646.2645089074176	0.0389999999999903
-646.7385483636306	0.021333333333338183
-647.2126108843712	-0.005
-647.6866964713114	0.07266666666667637
-648.1608051261403	0.10633333333333818
-648.6349368505428	-0.005
-649.1090916462059	0.135
-649.5832695148059	0.041666666666666664
-650.0574704580297	-0.05633333333333818
-650.5316944775642	-0.08866666666666181
-651.0059415750944	-0.021666666666666667
-651.4802117522987	-0.03699999999999515
-651.9545050108684	0.011666666666666667
-652.4288213524839	0.017333333333323632
-652.9031607788367	0.024333333333343036
-653.377523291605	-0.0560000000000097
-653.851908892476	-0.013000000000004851
-654.3263175831366	0.07133333333333819
-654.8007493652782	0.050333333333328484
-655.275204240577	0.0539999999999903
-655.7496822107221	0.012333333333323633
-656.2241832774027	-0.017666666666676368
-656.6987074423081	-0.05
-657.1732547071144	-0.013333333333333334
-657.647825073515	-0.0839999999999903
-658.1224185431972	-0.013666666666661815
-658.5970351178521	-0.02733333333332363
-659.071674799156	-0.02666666666666667
-659.5463375888046	0.0760000000000097
-660.0210234884827	0.13766666666667637
-660.4957324998816	0.04800000000000485
-660.970464624684	0.03666666666666667
-661.4452198645815	0.06366666666666182
-661.9199982212587	0.007666666666676368
-662.3947996964134	0.05800000000000485
-662.8696242917221	0.0006666666666569654
-663.3444720088801	0.07966666666667152
-663.8193428495747	0.07466666666667152
-664.2942368154993	0.03666666666666667
-664.7691539083344	0.15333333333333332
-665.2440941297757	0.07166666666666667
-665.7190574815126	0.07833333333333334
-666.1940439652361	0.017333333333323632
-666.6690535826314	0.043333333333333335
-667.1440863353895	0.10733333333332364
-667.6191422252042	-0.025333333333328482
-668.0942212537668	0.043000000000004854
-668.5693234227599	-0.044333333333343036
-669.0444487338814	-0.02
-669.5195971888182	-0.10466666666667152
-669.9947687892642	-0.020666666666656966
-670.4699635369146	-0.003666666666661816
-670.9451814334525	0.06766666666667637
-671.4204224805712	-0.015
-671.8956866799642	0.019666666666671516
-672.3709740333295	0.057666666666676365
-672.8462845423476	0.10833333333333334
-673.3216182087161	-0.024333333333343036
-673.7969750341267	0.0660000000000097
-674.2723550202793	0.0339999999999903
-674.7477581688544	-0.07966666666667152
-675.2231844815498	0.015333333333328482
-675.6986339600613	0.005666666666656966
-676.1741066060845	-0.0030000000000048508
-676.6496024213021	-0.03866666666666182
-677.1251214074143	0.05699999999999515
-677.6006635661165	-0.006333333333338184
-678.0762288991046	-0.009333333333343035
-678.5518174080635	-0.03133333333333818
-679.0274290946908	-0.11033333333332848
-679.5030639606846	-0.05800000000000485
-679.9787220077426	-0.07133333333333819
-680.4544032375497	-0.0239999999999903
-680.9301076518038	-0.12766666666667636
-681.4058352522029	-0.04633333333333818
-681.8815860404445	-0.017333333333323632
-682.3573600182182	-0.019666666666671516
-682.8331571872193	0.03266666666667637
-683.308977549148	0.041666666666666664
-683.7848211057002	0.00800000000000485
-684.2606878585669	0.034333333333343034
-684.7365778094462	0.1139999999999903
-685.2124909600358	0.11800000000000485
-685.688427312038	0.07066666666665697
-686.1643868671355	0.10066666666665697
-686.640369627037	0.0539999999999903
-687.1163755934316	-0.03266666666667637
-687.592404768028	0.08633333333333819
-688.0684571525112	0.03333333333333333
-688.5445327485811	0.04133333333333818
-689.0206315579399	0.035666666666656965
-689.4967535822876	0.04633333333333818
-689.9728988233136	0.013999999999990298
-690.4490672827199	0.1110000000000097
-690.9252589622043	-0.043000000000004854
-691.4014738634692	-0.024333333333343036
-691.8777119882124	0.035333333333328484
-692.3539733381273	0.0160000000000097
-692.8302579149183	0.021000000000009702
-693.3065657202812	0.07300000000000485
-693.782896755916	0.029666666666671518
-694.2592510235271	0.018666666666661814
-694.7356285248057	0.0
-695.2120292614607	0.02300000000000485
-695.6884532351831	0.007666666666676368
-696.1649004476822	0.035333333333328484
-696.6413709006488	0.006333333333338184
-697.1178645957918	0.003666666666661816
-697.5943815348027	0.005
-698.0709217193943	0.017666666666676368
-698.547485151258	-0.058666666666661815
-699.0240718320983	-0.008666666666661816
-699.5006817636153	-0.09733333333332363
-699.977314947513	0.0010000000000097012
-700.4539713854917	-0.0639999999999903
-700.9306510792559	-0.04833333333333333
-701.4073540305009	0.07566666666665696
-701.8840802409356	-0.007666666666676368
-702.3608297122558	-0.060333333333328486
-702.8376024461702	-0.09800000000000485
-703.3143984443786	-0.02199999999999515
-703.7912177085856	-0.013666666666661815
-704.2680602404868	0.03199999999999515
-704.7449260417994	0.008333333333333333
-705.221815114215	-0.05433333333334303
-705.6987274594424	-0.002333333333323632
-706.1756630791813	-0.03266666666667637
-706.6526219751405	-0.0019999999999951493
-707.1296041490159	0.0016666666666666668
-707.6066096025246	0.02199999999999515
-708.0836383373583	-0.008999999999990299
-708.5606903552296	0.05300000000000485
-709.0377656578345	0.04866666666666181
-709.5148642468903	-0.005333333333328483
-709.9919861240926	0.009666666666671517
-710.4691312911503	-0.016666666666666666
-710.9462997497633	-0.018333333333333333
-711.4234915016445	-0.005666666666656966
-711.9007065484986	0.008999999999990299
-712.3779448920254	-0.11833333333333333
-712.855206533938	-0.06
-713.3324914759364	0.036333333333338186
-713.8097997197294	-0.09366666666666182
-714.2871312670255	-0.0060000000000097016
-714.7644861195292	0.0016666666666666668
-715.2418642789494	0.041666666666666664
-715.71926574699	-0.004666666666671517
-716.19669052536	-0.019666666666671516
-716.6741386157682	0.059333333333343036
-717.1516100199144	0.03733333333332363
-717.6291047395205	0.05699999999999515
-718.1066227762776	0.06366666666666182
-718.5841641319076	0.09333333333333334
-719.0617288081106	0.0539999999999903
-719.5393168065996	0.0003333333333284827
-720.0169281290788	-0.011000000000009702
-720.4945627772613	0.050666666666656965
-720.9722207528516	0.02733333333332363
-721.4499020575627	-0.02266666666667637
-721.9276066930988	-0.0160000000000097
-722.4053346611774	0.029333333333343033
-722.8830859634986	-0.07800000000000486
-723.3608606017754	-0.0489999999999903
-723.8386585777207	-0.03800000000000485
-724.3164798930433	-0.07933333333334304
-724.7943245494477	-0.07133333333333819
-725.272192548651	-0.019666666666671516
-725.7500838923621	-0.011333333333338184
-726.2279985822896	0.022333333333323633
-726.7059366201466	0.026333333333338184
-727.1838980076462	-0.0006666666666569654
-727.6618827464928	-0.007666666666676368
-728.1398908384035	-0.03966666666667152
-728.6179222850873	-0.030333333333328483
-729.095977088257	-0.05966666666667152
-729.5740552496214	-0.00800000000000485
-730.052156770898	-0.005
-730.5302816537911	-0.07766666666667636
-731.0084299000223	-0.003999999999990299
-731.4866015113004	-0.0739999999999903
-731.964796489334	-0.028999999999990297
-732.4430148358406	0.03333333333333333
-732.9212565525332	0.006333333333338184
-733.3995216411205	0.07166666666666667
-733.8778101033242	0.050333333333328484
-734.3561219408443	-0.07566666666665696
-734.8344571554113	-0.03666666666666667
-735.3128157487251	-0.08233333333332363
-735.7911977225033	-0.07866666666666182
-736.2696030784673	0.004333333333343035
-736.7480318183216	-0.06333333333333334
-737.2264839437879	-0.095
-737.7049594565793	-0.04633333333333818
-738.1834583584089	0.023333333333333334
-738.6619806509894	-0.09333333333333334
-739.1405263360386	-0.11066666666665696
-739.6190954152737	-0.07199999999999515
-740.0976878904078	-0.11199999999999515
-740.5763037631581	-0.04466666666667152
-741.054943035242	-0.0610000000000097
-741.5336057083684	-0.0610000000000097
-742.0122917842632	-0.0360000000000097
-742.4910012646309	-0.05633333333333818
-742.9697341512017	-0.004333333333343035
-743.44849044568	-0.08933333333334303
-743.927270149792	-0.013333333333333334
-744.4060732652506	-0.04133333333333818
-744.8848997937732	0.02800000000000485
-745.3637497370773	0.018333333333333333
-745.8426230968801	0.034333333333343034
-746.3215198748991	0.044333333333343036
-746.8004400728515	0.08800000000000485
-747.2793836924593	0.08433333333334303
-747.7583507354353	0.08333333333333333
-748.2373412035014	0.11333333333333333
-748.716355098379	-0.051666666666666666
-749.1953924217772	-0.004333333333343035
-749.6744531754217	0.03966666666667152
-750.1535373610302	0.056666666666666664
-750.6326449803285	0.04666666666666667
-751.111776035021	0.0539999999999903
-751.5909305268425	0.10666666666666667
-752.0701084575018	0.04066666666665696
-752.5493098287246	-0.04133333333333818
-753.0285346422287	-0.008666666666661816
-753.5077828997398	-0.041666666666666664
-753.987054602967	-0.024333333333343036
-754.4663497536402	0.010666666666656966
-754.9456683534771	0.021000000000009702
-755.4250104042037	-0.08433333333334303
-755.9043759075286	0.006999999999995149
-756.3837648651867	-0.0016666666666666668
-756.8631772788864	0.085
-757.3426131503628	0.05633333333333818
-757.8220724813286	0.01
-758.3015552735102	-0.002666666666676368
-758.7810615286247	0.0439999999999903
-759.2605912483939	0.06766666666667637
-759.7401444345481	0.016666666666666666
-760.2197210888049	0.08233333333332363
-760.6993212128901	-0.0189999999999903
-761.1789448085212	0.07966666666667152
-761.6585918774243	0.012333333333323633
-762.1382624213211	-0.0019999999999951493
-762.6179564419375	-0.033666666666661814
-763.0976739409954	0.020666666666656966
-763.5774149202207	-0.013666666666661815
-764.0571793813351	-0.017666666666676368
-764.5369673260649	0.09466666666667152
-765.0167787561315	0.051333333333338185
-765.4966136732611	0.030333333333328483
-765.9764720791754	0.041666666666666664
-766.4563539756049	0.012666666666676369
-766.9362593642668	0.07633333333333818
-767.4161882468959	-0.03266666666667637
-767.8961406252051	-0.0339999999999903
-768.3761165009338	0.005666666666656966
-768.856115875799	-0.05633333333333818
-769.336138751527	0.10666666666666667
-769.8161851298437	-0.024333333333343036
-770.2962550124796	-0.004333333333343035
-770.7763484011564	-0.029333333333343033
-771.2564652976043	-0.03866666666666182
-771.7366057035454	0.03699999999999515
-772.2167696207097	-0.051666666666666666
-772.6969570508234	-0.03733333333332363
-773.1771679956125	-0.07
-773.6574024568075	-0.028333333333333332
-774.1376604361301	-0.044333333333343036
-774.6179419353149	-0.0410000000000097
-775.0982469560837	-0.014666666666671517
-775.578575500167	-0.07766666666667636
-776.0589275692992	-0.06566666666665696
-776.5393031651936	-0.11833333333333333
-777.0197022895935	-0.08766666666667637
-777.5001249442207	0.0033333333333333335
-777.9805711308056	0.012666666666676369
-778.4610408510741	-0.0003333333333284827
-778.941534106761	0.02666666666666667
-779.422050899588	0.04566666666665697
-779.9025912312899	-0.018333333333333333
-780.383155103597	0.05533333333332848
-780.8637425182397	-0.0310000000000097
-781.3443534769441	0.0033333333333333335
-781.8249879814406	-0.017666666666676368
-782.3056460334637	-0.0003333333333284827
-782.7863276347398	0.003999999999990299
-783.2670327870034	-0.034333333333343034
-783.7477614919806	-0.030666666666656964
-784.2285137514104	0.05699999999999515
-784.7092895670147	-0.021666666666666667
-785.190088940528	-0.003999999999990299
-785.6709118736851	-0.008333333333333333
-786.1517583682121	-0.05966666666667152
-786.632628425848	-0.07100000000000971
-787.1135220483189	-0.03266666666667637
-787.5944392373596	-0.1553333333333285
-788.0753799947003	-0.08966666666667152
-788.5563443220758	-0.09933333333334303
-789.0373322212208	-0.18133333333333818
-789.5183436938614	0.044333333333343036
-789.9993787417368	-0.030333333333328483
-790.4804373665771	0.07466666666667152
-790.9615195701215	0.03300000000000485
-791.4426253540961	0.07466666666667152
-791.9237547202398	0.057666666666676365
-792.4049076702788	0.023333333333333334
-792.8860842059564	-0.03699999999999515
-793.3672843290032	0.057666666666676365
-793.8485080411537	-0.0006666666666569654
-794.3297553441382	0.08133333333333818
-794.8110262397004	-0.012333333333323633
-795.2923207295705	-0.011333333333338184
-795.7736388154832	0.06300000000000484
-796.2549804991734	-0.08366666666666181
-796.7363457823756	-0.051333333333338185
-797.217734666829	0.06533333333332848
-797.6991471542682	0.03233333333332363
-798.180583246428	0.03800000000000485
-798.6620429450433	0.09233333333332364
-799.1435262518528	0.009666666666671517
-799.6250331685959	-0.051333333333338185
-800.1065636969985	-0.010666666666656966
-800.5881178388125	-0.05
-801.06969559576	-0.02266666666667637
-801.5512969695884	-0.025
-802.0329219620326	0.018666666666661814
-802.5145705748272	-0.006999999999995149
-802.9962428097114	0.014333333333343034
-803.4779386684241	0.022333333333323633
-803.9596581527046	0.02666666666666667
-804.4414012642874	0.0
-804.9231680049115	-0.06066666666665697
-805.4049583763206	-0.027666666666676366
-805.8867723802448	-0.015666666666656965
-806.368610018432	-0.015333333333328482
-806.8504712926126	-0.06833333333333333
-807.3323562045299	0.01199999999999515
-807.8142647559273	0.06666666666666667
-808.2961969485352	0.041666666666666664
-808.7781527841014	-0.012666666666676369
-809.2601322643649	0.06933333333334303
-809.7421353910604	0.026333333333338184
-810.2241621659313	-0.028333333333333332
-810.7062125907211	0.029333333333343033
-811.1882866671644	0.0410000000000097
-811.6703843970047	0.09533333333332848
-812.1525057819853	0.03266666666667637
-812.634650823841	-0.0003333333333284827
-813.1168195243196	-0.010666666666656966
-813.5990118851643	0.0389999999999903
-814.0812279081055	0.04
-814.5634675948954	0.024333333333343036
-815.0457309472688	0.0060000000000097016
-815.5280179669776	0.03866666666666182
-816.0103286557522	0.011000000000009702
-816.4926630153448	-0.023666666666661815
-816.9750210474899	0.011333333333338184
-817.4574027539397	-0.04566666666665697
-817.9398081364247	-0.025
-818.4222371967012	-0.0006666666666569654
-818.9046899365038	-0.010333333333328483
-819.3871663575804	-0.235
-819.8696664616701	0.15666666666666668
