-194.34305441739858	-0.018333333333333333
-194.79536075947718	0.058333333333333334
-195.24768859823178	0.07333333333333333
-195.70003793519538	0.14699999999999516
-196.15240877190544	0.09266666666667636
-196.60480110989712	0.07333333333333333
-197.0572149506927	0.14833333333333334
-197.50965029583173	0.04666666666666667
-197.96210714684943	0.058666666666661815
-198.41458550527886	0.015666666666656965
-198.86708537264877	-0.025333333333328482
-199.31960675049436	-0.08366666666666181
-199.77214964035304	-0.04800000000000485
-200.22471404376003	-0.013333333333333334
-200.6772999622419	0.003666666666661816
-201.12990739733607	-0.021333333333338183
-201.58253635057773	0.026333333333338184
-202.03518682350864	-0.08733333333332363
-202.48785881765102	-0.003666666666661816
-202.9405523345444	-0.08133333333333818
-203.39326737572623	-0.09533333333332848
-203.8460039427339	-0.008666666666661816
-204.29876203709608	0.0360000000000097
-204.75154166035023	-0.002333333333323632
-205.20434281403158	0.12166666666666667
-205.657165499684	0.06833333333333333
-206.1100097188319	0.09966666666667151
-206.5628754730148	0.08266666666667637
-207.01576276377017	-0.019333333333343035
-207.4686715926397	0.05966666666667152
-207.92160196115	-0.08133333333333818
-208.37455387084057	0.0239999999999903
-208.82752732325102	-0.002666666666676368
-209.2805223199209	-0.01
-209.73353886238107	0.04800000000000485
-210.186576952169	0.06366666666666182
-210.6396365908242	-0.02033333333332848
-211.09271777988843	-0.008999999999990299
-211.5458205208926	-0.012666666666676369
-211.99894481537407	0.07366666666666181
-212.45209066487462	0.04566666666665697
-212.90525807093158	0.026000000000009703
-213.35844703508894	-0.030666666666656964
-213.81165755887318	0.023333333333333334
-214.26488964382827	-0.10433333333334303
-214.7181432914937	0.011666666666666667
-215.1714185034113	0.013000000000004851
-215.62471528111405	0.011333333333338184
-216.07803362614374	-0.013333333333333334
-216.53137354003772	0.03766666666667637
-216.9847350243421	-0.005666666666656966
-217.43811808058777	0.021333333333338183
-217.8915227103186	0.03
-218.3449489150742	0.023333333333333334
-218.79839669639847	-0.04800000000000485
-219.2518660558223	0.026000000000009703
-219.7053569948917	-0.07566666666665696
-220.15886951514634	-0.03
-220.61240361813222	0.02666666666666667
-221.06595930538026	-0.06166666666666667
-221.51953657843652	-0.021000000000009702
-221.9731354388406	0.0539999999999903
-222.4267558881385	0.019666666666671516
-222.88039792786336	-0.04466666666667152
-223.3340615595612	0.03199999999999515
-223.78774678477382	-0.04766666666667637
-224.24145360504505	-0.02
-224.69518202191014	0.06966666666667151
-225.14893203691736	0.07466666666667152
-225.6027036516041	-0.03966666666667152
-226.05649686752074	-0.08566666666665697
-226.51031168620037	-0.05466666666667152
-226.96414810918904	0.034666666666671515
-227.41800613802852	-0.01699999999999515
-227.87188577426917	-0.036333333333338186
-228.3257870194441	0.05300000000000485
-228.77970987510153	-0.0939999999999903
-229.23365434278105	-0.02
-229.68762042403517	0.025
-230.14160812039702	-0.0489999999999903
-230.59561743341484	-0.06
-231.04964836463031	0.043666666666661816
-231.50370091559606	-0.0010000000000097012
-231.9577750878451	-0.007333333333323632
-232.41187088292793	-0.12566666666665696
-232.86598830238617	-0.035666666666656965
-233.32012734776816	-0.10366666666666181
-233.7742880206199	-0.024666666666671517
-234.22847032247884	-0.07733333333332364
-234.68267425489535	0.003666666666661816
-235.13689981941337	0.026000000000009703
-235.59114701758327	-0.05633333333333818
-236.04541585094248	0.028666666666661816
-236.49970632103924	-0.029666666666671518
-236.95401842942178	0.044333333333343036
-237.40835217763833	-0.007333333333323632
-237.86270756722848	0.01800000000000485
-238.31708459974044	-0.04566666666665697
-238.7714832767225	-0.043333333333333335
-239.22590359972503	0.018333333333333333
-239.68034557028543	-0.005
-240.13480918995845	0.02
-240.58929446028583	-0.011666666666666667
-241.04380138282232	-0.007666666666676368
-241.49832995910532	-0.03233333333332363
-241.9528801906874	0.02666666666666667
-242.4074520791168	0.07866666666666182
-242.86204562594392	0.0760000000000097
-243.31666083271054	0.0639999999999903
-243.771297700967	0.04666666666666667
-244.2259562322616	0.04533333333332848
-244.6806364281469	-0.044333333333343036
-245.13533829016242	-0.011000000000009702
-245.59006181986516	-0.0016666666666666668
-246.04480701879896	-0.017666666666676368
-246.4995738885186	-0.019333333333343035
-246.95436243056577	-0.013666666666661815
-247.40917264649312	-0.02033333333332848
-247.8640045378488	-0.12866666666666182
-248.31885810618982	-0.028999999999990297
-248.7737333530535	-0.03966666666667152
-249.22863027999898	-0.1
-249.68354888857013	-0.08266666666667637
-250.13848918032602	-0.07933333333334304
-250.59345115680628	-0.10566666666665697
-251.04843481956775	-0.04033333333332848
-251.5034401701587	-0.052333333333323635
-251.9584672101339	-0.05699999999999515
-252.41351594103722	-0.028333333333333332
-252.86858636442344	0.08866666666666181
-253.3236784818451	-0.05199999999999515
-253.77879229485046	-0.011333333333338184
-254.23392780499861	0.07566666666665696
-254.6890850138291	0.09533333333332848
-255.14426392290102	0.03766666666667637
-255.59946453376477	0.0019999999999951493
-256.0546868479773	0.08800000000000485
-256.50993086708246	-0.005
-256.96519659263504	0.08166666666666667
-257.42048402618974	0.029333333333343033
-257.8757931693035	0.018666666666661814
-258.3311240235181	0.052333333333323635
-258.7864765903947	0.056666666666666664
-259.2418508714817	0.04566666666665697
-259.6972468683423	0.04800000000000485
-260.15266458251625	0.035
-260.6081040155625	0.1363333333333382
-261.0635651690359	0.07699999999999516
-261.51904804449543	-0.017666666666676368
-261.97455264348514	0.016333333333338185
-262.43007896756177	0.02800000000000485
-262.88562701828454	-0.004333333333343035
-263.34119679720595	-0.023333333333333334
-263.7967883058765	0.029666666666671518
-264.25240154585515	0.026000000000009703
-264.70803651869454	-0.030666666666656964
-265.16369322595375	0.0360000000000097
-265.619371669181	0.01800000000000485
-266.0750718499376	-0.024666666666671517
-266.53079376977394	-0.07333333333333333
-266.98653743025557	-0.00800000000000485
-267.4423028329264	-0.05533333333332848
-267.8980899793455	-0.09466666666667152
-268.35389887107203	-0.08666666666666667
-268.809729509665	-0.1
-269.26558189667264	0.05533333333332848
-269.7214560336541	-0.016666666666666666
-270.1773519221706	-0.0239999999999903
-270.6332695637768	0.024333333333343036
-271.0892089600255	-0.0189999999999903
-271.5451701124777	0.05633333333333818
-272.0011530226883	-0.008666666666661816
-272.45715769222284	0.043666666666661816
-272.91318412262734	0.058333333333333334
-273.3692323154632	0.03966666666667152
-273.8253022722893	0.057666666666676365
-274.28139399466926	0.02666666666666667
-274.73750748415335	-0.005
-275.19364274230077	0.08733333333332363
-275.6497997706705	0.09166666666666666
-276.10597857082377	0.0310000000000097
-276.56217914432193	-0.07300000000000485
-277.0184014927153	0.08733333333332363
-277.47464561756743	0.07833333333333334
-277.9309115204373	0.075
-278.38719920288827	-0.01199999999999515
-278.84350866647304	-0.015
-279.2998399127528	-0.03833333333333333
-279.75619294328885	0.08533333333332849
-280.21256775964673	0.06
-280.6689643633747	0.13533333333332848
-281.12538275604055	0.21266666666667636
-281.5818229392033	0.17166666666666666
-282.03828491442636	0.16033333333332847
-282.4947686832645	0.20533333333332848
-282.951274247279	0.1546666666666715
-283.4078016080354	0.16666666666666666
-283.8643507670972	0.09466666666667152
-284.32092172601693	0.09566666666665696
-284.77751448636013	0.1710000000000097
-285.23412904968814	0.0960000000000097
-285.69076541756647	0.11066666666665696
-286.1474235915499	0.17433333333334303
-286.6041035732062	-0.021333333333338183
-287.0608053640923	0.10533333333332848
-287.5175289657802	0.105
-287.9742743798204	0.07300000000000485
-288.4310416077828	0.0739999999999903
-288.8878306512286	0.09466666666667152
-289.34464151172347	0.1
-289.80147419082215	0.1160000000000097
-290.2583286900945	0.1389999999999903
-290.715205011104	0.04133333333333818
-291.17210315541405	0.08533333333332849
-291.62902312458584	0.04566666666665697
-292.0859649201829	0.09733333333332363
-292.54292854377076	0.11366666666666182
-292.99991399691714	0.14066666666665698
-293.45692128117906	0.1539999999999903
-293.91395039812414	0.16033333333332847
-294.3710013493181	0.10199999999999515
-294.8280741363286	0.13366666666666183
-295.2851687607126	0.1039999999999903
-295.74228522404	0.20766666666667638
-296.1994235278743	0.14933333333334303
-296.65658367378524	0.13733333333332362
-297.1137656633321	0.15233333333332363
-297.57096949808255	0.1386666666666618
-298.02819517960216	0.23033333333332848
-298.48544270945877	0.0939999999999903
-298.9427120892222	0.030666666666656964
-299.40000332044724	0.16533333333332847
-299.8573164047082	0.13300000000000486
-300.3146513435705	0.06800000000000485
-300.7720081386043	0.12733333333332364
-301.22938679136854	0.17233333333332362
-301.68678730343316	0.07066666666665697
-302.1442096763681	0.14033333333332848
-302.60165391174115	0.2339999999999903
-303.0591200111157	0.21833333333333332
-303.51660797605945	0.24866666666666182
-303.97411780814025	0.105
-304.43164950893447	0.0789999999999903
-304.88920307999683	0.11766666666667637
-305.34677852290173	0.0910000000000097
-305.80437583921673	0.08933333333334303
-306.2619950305163	0.0160000000000097
-306.71963609835933	0.11266666666667637
-307.1772990443202	0.044333333333343036
-307.63498386996446	0.11199999999999515
-308.0926905768685	0.13933333333334302
-308.5504191665915	0.12300000000000486
-309.00816964070987	0.15266666666667636
-309.4659420007891	0.11166666666666666
-309.92373624840354	0.13966666666667152
-310.3815523851166	0.1386666666666618
-310.8393904125025	0.12166666666666667
-311.2972503321312	0.1853333333333285
-311.7551321455748	0.16266666666667637
-312.21303585439887	0.10966666666667152
-312.6709614601733	0.12733333333332364
-313.12890896447465	0.15233333333332363
-313.58687836887265	0.14566666666665695
-314.0448696749352	0.08199999999999515
-314.50288288423224	0.2160000000000097
-314.9609179983401	0.13466666666667151
-315.41897501882875	0.04466666666667152
-315.8770539472681	0.09233333333332364
-316.3351547852281	0.10800000000000486
-316.79327753428515	0.03933333333334303
-317.2514221960114	0.1313333333333382
-317.70958877197455	0.08933333333334303
-318.16777726374886	0.16033333333332847
-318.62598767290865	0.105
-319.08422000102377	0.0989999999999903
-319.54247424967286	0.17566666666665698
-320.00075042041937	0.07533333333332848
-320.45904851484397	0.10199999999999515
-320.9173685345167	0.1960000000000097
-321.3757104810161	0.04533333333332848
-321.8340743559077	-0.02666666666666667
-322.2924601607681	0.0789999999999903
-322.7508678971735	0.0760000000000097
-323.20929756669835	0.08533333333332849
-323.6677491709125	0.12133333333333818
-324.1262227113924	0.13533333333332848
-324.58471818971447	0.09833333333333333
-325.04323560745513	0.0910000000000097
-325.50177496617994	0.14533333333332848
-325.96033626746976	0.2563333333333382
-326.4189195129009	0.17666666666666667
-326.87752470405206	0.13166666666666665
-327.33615184248663	0.0439999999999903
-327.7948009297897	-0.0239999999999903
-328.25347196753336	0.13033333333332847
-328.7121649573005	0.058999999999990296
-329.17087990065465	-0.003999999999990299
-329.6296167991787	0.1039999999999903
-330.0883756544512	0.020666666666656966
-330.5471564680486	0.042666666666676366
-331.0059592415409	-0.0003333333333284827
-331.4647839765066	0.17333333333333334
-331.9236306745287	0.033666666666661814
-332.3824993371814	0.013333333333333334
-332.841389966039	0.06133333333333819
-333.30030256268014	0.049333333333343034
-333.75923712868115	-0.017666666666676368
-334.2181936656272	0.1039999999999903
-334.67717217508607	0.12033333333332848
-335.13617265863843	-0.0019999999999951493
-335.59519511786516	0.16766666666667637
-336.05423955434696	0.0789999999999903
-336.5133059696538	0.09333333333333334
-336.9723943653707	0.026000000000009703
-337.431504743072	0.11033333333332848
-337.89063710434493	-0.023333333333333334
-338.3497914507573	0.056666666666666664
-338.80896778389416	0.013000000000004851
-339.2681661053341	0.0010000000000097012
-339.72738641665796	-0.055
-340.18662871944645	0.030333333333328483
-340.6458930152738	-0.02
-341.10517930572087	0.11199999999999515
-341.56448759237264	0.057666666666676365
-342.0238178768078	0.15600000000000971
-342.48317016060497	0.07333333333333333
-342.9425444453427	0.12933333333334304
-343.4019407326039	0.05300000000000485
-343.86135902397376	0.09633333333333818
-344.3207993210264	0.10566666666665697
-344.7802616253449	0.13066666666665697
-345.23974593850994	0.0660000000000097
-345.69925226211103	0.1460000000000097
-346.15878059771586	0.11933333333334303
-346.6183309469139	0.08600000000000971
-347.0779033112881	0.00800000000000485
-347.5374976924213	0.07433333333334304
-347.99711409189007	0.0439999999999903
-348.4567525112773	0.06199999999999515
-348.91641295217016	-0.021000000000009702
-349.37609541615393	0.08366666666666181
-349.8357999048005	0.07066666666665697
-350.2955264196995	0.07866666666666182
-350.7552749624338	0.10166666666666667
-351.21504553458846	-0.0489999999999903
-351.6748381377421	-0.06366666666666182
-352.13465277347984	0.028999999999990297
-352.59448944338675	-0.013999999999990298
-353.05434814905016	-0.043000000000004854
-353.51422889204645	0.08133333333333818
-353.9741316739629	0.042666666666676366
-354.43405649638464	0.10033333333332849
-354.8940033608989	0.12433333333334304
-355.35397226908435	0.08
-355.8139632225282	0.034666666666671515
-356.2739762228155	0.08866666666666181
-356.73401127153585	0.04199999999999515
-357.19406837026554	-0.001333333333338184
-357.65414752059405	-0.024333333333343036
-358.1142487241087	0.1510000000000097
-358.5743719823988	-0.03800000000000485
-359.0345172970388	0.1
-359.49468466962236	0.005666666666656966
-359.95487410173456	-0.0389999999999903
-360.4150855949649	0.04699999999999515
-360.875319150892	-0.00800000000000485
-361.3355747711074	-0.0639999999999903
-361.79585245719625	0.019666666666671516
-362.25615221074577	0.045
-362.7164740333498	0.13066666666665697
-363.17681792658476	0.07699999999999516
-363.63718389204223	0.12666666666666668
-364.09757193130946	0.1610000000000097
-364.5579820459781	0.1289999999999903
-365.01841423763113	0.0889999999999903
-365.47886850785574	0.15933333333334304
-365.93934485824354	0.05433333333334303
-366.399843290384	0.10966666666667152
-366.8603638058601	0.06800000000000485
-367.32090640626336	0.1460000000000097
-367.78147109318115	0.06133333333333819
-368.24205786820716	0.005666666666656966
-368.70266673292434	0.065
-369.16329768892433	0.04199999999999515
-369.6239507377966	0.11766666666667637
-370.08462588113264	0.020666666666656966
-370.54532312051765	0.02
-371.00604245754323	0.05566666666665696
-371.46678389379883	0.08633333333333819
-371.92754743088034	0.06833333333333333
-372.38833307036856	0.011333333333338184
-372.84914081385944	0.0439999999999903
-373.3099706629424	0.03766666666667637
-373.7708226192113	-0.059333333333343036
-374.23169668424896	-0.0839999999999903
-374.69259285965353	-0.0019999999999951493
-375.15351114701235	0.050333333333328484
-375.6144515479234	0.03733333333332363
-376.07541406396757	-0.04533333333332848
-376.53639869674294	0.0016666666666666668
-376.9974054478411	0.0310000000000097
-377.45843431885584	-0.012666666666676369
-377.91948531137444	0.014666666666671517
-378.38055842698844	0.025
-378.84165366729604	0.051666666666666666
-379.30277103388886	0.05199999999999515
-379.7639105283541	0.009333333333343035
-380.22507215228774	0.06466666666667152
-380.68625590728135	0.03833333333333333
-381.1474617949353	-0.0010000000000097012
-381.6086898168324	0.05800000000000485
-382.06993997457306	0.06466666666667152
-382.5312122697467	0.04733333333332363
-382.9925067039492	0.14666666666666667
-383.45382327877866	0.060333333333328486
-383.9151619958224	0.013000000000004851
-384.3765228566743	0.024666666666671517
-384.83790586293225	0.007333333333323632
-385.2993110161967	0.02266666666667637
-385.76073831804837	-0.006666666666666667
-386.22218777009186	-0.035666666666656965
-386.68365937391667	-0.075
-387.14515313112736	0.029333333333343033
-387.60666904330685	-0.001333333333338184
-388.0682071120576	0.03166666666666667
-388.52976733897566	0.06199999999999515
-388.99134972565685	0.0660000000000097
-389.4529542736928	0.04199999999999515
-389.9145809846795	-0.0439999999999903
-390.3762298602194	0.01199999999999515
-390.83790090190627	0.0889999999999903
-391.2995941113338	-0.04866666666666181
-391.7613094900981	-0.044333333333343036
-392.22304703979927	0.04033333333332848
-392.68480676203774	0.07699999999999516
-393.1465886584029	-0.04199999999999515
-393.608392730495	-0.09233333333332364
-394.07021897991	-0.006666666666666667
-394.53206740825254	0.07833333333333334
-394.99393801711204	0.07733333333332364
-395.4558308080888	0.06300000000000484
-395.91774578278097	0.06566666666665696
-396.37968294279096	0.03933333333334303
-396.84164228971036	0.08733333333332363
-397.3036238251394	0.0160000000000097
-397.7656275506785	0.007333333333323632
-398.22765346793005	0.0060000000000097016
-398.68970157848565	0.002666666666676368
-399.15177188394773	-0.06
-399.61386438591444	0.0360000000000097
-400.07597908599257	0.017666666666676368
-400.53811598576937	-0.010666666666656966
-401.0002750868516	0.08300000000000485
-401.4624563908375	0.08
-401.92465989933146	0.1896666666666715
-402.38688561392746	0.07033333333332849
-402.8491335362279	0.0
-403.3114036678331	0.1539999999999903
-403.7736960103475	0.02666666666666667
-404.2360105653672	0.08033333333332848
-404.69834733449255	0.0360000000000097
-405.160706319328	0.0439999999999903
-405.6230875214739	0.0539999999999903
-406.08549094253493	0.09866666666666181
-406.54791658410477	0.029666666666671518
-407.01036444779027	0.05733333333332363
-407.47283453519384	0.017666666666676368
-407.93532684791796	-0.0016666666666666668
-408.3978413875608	0.0389999999999903
-408.86037815572683	0.009666666666671517
-409.3229371540164	0.007333333333323632
-409.78551838404076	-0.03233333333332363
-410.2481218473935	-0.020666666666656966
-410.7107475456772	-0.026333333333338184
-411.1733954805007	0.022333333333323633
-411.63606565346873	-0.0489999999999903
-412.0987580661772	-0.04133333333333818
-412.5614727202328	0.06133333333333819
-413.02420961724033	0.021666666666666667
-413.4869687588065	-0.011666666666666667
-413.9497501465272	0.11133333333333818
-414.41255378201356	0.07100000000000971
-414.87537966686597	-0.022333333333323633
-415.3382278026954	0.11199999999999515
-415.801098191098	0.050333333333328484
-416.2639908336825	0.0439999999999903
-416.7269057320537	0.02800000000000485
-417.1898428878204	0.03699999999999515
-417.6528023025808	0.006666666666666667
-418.1157839779439	-0.004333333333343035
-418.57878791551644	0.0610000000000097
-419.0418141169052	0.034666666666671515
-419.5048625837104	0.065
-419.9679333175411	0.02699999999999515
-420.4310263200041	0.02800000000000485
-420.8941415927104	0.02199999999999515
-421.3572791372561	-0.021333333333338183
-421.82043895525436	-0.065
-422.28362104831206	-0.09199999999999516
-422.74682541803804	-0.0560000000000097
-423.21005206603274	0.051666666666666666
-423.67330099390716	0.09633333333333818
-424.13657220326814	0.029666666666671518
-424.59986569572897	0.06366666666666182
-425.0631814728878	-0.002666666666676368
-425.5265195363578	0.03133333333333818
-425.9898798877459	0.011333333333338184
-426.45326252866096	0.005666666666656966
-426.9166674607163	0.018333333333333333
-427.3800946855101	0.08866666666666181
-427.84354420465553	0.0060000000000097016
-428.3070160197638	0.044333333333343036
-428.770510132446	0.08666666666666667
-429.2340265443025	0.013999999999990298
-429.69756525694646	0.059333333333343036
-430.16112627199124	-0.003666666666661816
-430.62470959104576	0.01199999999999515
-431.08831521571466	0.02800000000000485
-431.5519431476091	0.001333333333338184
-432.0155933883424	0.03
-432.4792659395277	0.016333333333338185
-432.9429608027654	-0.02266666666667637
-433.4066779796732	0.07233333333332363
-433.87041747185987	0.06966666666667151
-434.334179280941	-0.04666666666666667
-434.7979634085168	0.014666666666671517
-435.26176985620714	0.015333333333328482
-435.72559862562093	0.1
-436.1894497183737	-0.028333333333333332
-436.6533231360678	0.0360000000000097
-437.1172188803209	-0.011000000000009702
-437.5811369527441	-0.06
-438.0450773549529	-0.03699999999999515
-438.5090400885541	-0.08533333333332849
-438.973025155161	-0.010333333333328483
-439.43703255638684	0.03199999999999515
-439.90106229384924	-0.03
-440.36511436915504	0.007333333333323632
-440.82918878391536	0.05333333333333334
-441.29328553975	-0.013000000000004851
-441.7574046382722	-0.03233333333332363
-442.2215460810888	0.057666666666676365
-442.68570986981524	0.04033333333332848
-443.1498960060691	0.02199999999999515
-443.614104491466	0.07699999999999516
-444.07833532761254	0.14433333333334303
-444.5425885161265	0.016333333333338185
-445.00686405862325	0.0160000000000097
-445.4711619567226	0.011000000000009702
-445.935482212027	0.02666666666666667
-446.3998248261584	-0.059333333333343036
-446.8641898007302	0.02800000000000485
-447.3285771373643	0.06266666666667636
-447.79298683766524	0.033666666666661814
-448.25741890325503	-0.01699999999999515
-448.72187333574703	0.016333333333338185
-449.18635013675885	-0.051666666666666666
-449.65084930790806	0.05800000000000485
-450.11537085080585	0.015
-450.5799147670698	0.06166666666666667
-451.04448105831756	0.07733333333332364
-451.5090697261711	0.075
-451.97368077223723	0.012666666666676369
-452.4383141981357	0.06533333333332848
-452.90297000548634	0.03766666666667637
-453.36764819590894	0.005
-453.8323487710146	-0.03266666666667637
-454.29707173242315	0.0003333333333284827
-454.7618170817522	0.0006666666666569654
-455.22658482062377	-0.024666666666671517
-455.6913749506467	0.03199999999999515
-456.15618747344746	-0.008999999999990299
-456.6210223906392	0.02033333333332848
-457.0858797038461	0.02300000000000485
-457.55075941468147	-0.0016666666666666668
-458.01566152476505	0.07266666666667637
-458.48058603571457	0.023333333333333334
-458.9455329491584	-0.04699999999999515
-459.41050226670126	-0.021666666666666667
-459.8754939899715	-0.009333333333343035
-460.3405081205869	0.04533333333332848
-460.80554466017145	-0.0030000000000048508
-461.27060361033637	0.0160000000000097
-461.7356849727057	-0.0033333333333333335
-462.2007887489016	0.014333333333343034
-462.66591494054575	0.06233333333332363
-463.1310635492517	-0.007333333333323632
-463.5962345766456	-0.015666666666656965
-464.0614280243451	-0.01199999999999515
-464.5266438939766	-0.04699999999999515
-464.9918821871533	0.07133333333333819
-465.45714290550154	0.06800000000000485
-465.92242605064325	-0.022333333333323633
-466.3877316242004	0.0030000000000048508
-466.8530596277885	0.024333333333343036
-467.318410063036	0.07933333333334304
-467.7837829315627	0.041666666666666664
-468.24917823499277	-0.025666666666656967
-468.71459597494373	0.02266666666667637
-469.18003615304195	0.015
-469.64549877090946	0.08333333333333333
-470.1109838301681	-0.05733333333332363
-470.57649133244644	-0.012666666666676369
-471.0420212793577	-0.02733333333332363
-471.5075736725304	-0.03666666666666667
-471.9731485135887	-0.02199999999999515
-472.4387458041588	0.06966666666667151
-472.90436554585847	0.021000000000009702
-473.37000774031173	0.05566666666665696
-473.83567238914713	0.08
-474.3013594939909	0.03833333333333333
-474.7670690564607	0.0239999999999903
-475.2328010781829	-0.010666666666656966
-475.6985555607837	0.058666666666661815
-476.16433250588943	0.013000000000004851
-476.6301319151221	0.04533333333332848
-477.0959537901058	-0.04633333333333818
-477.561798132469	0.03199999999999515
-478.0276649438424	0.06333333333333334
-478.49355422583926	0.026000000000009703
-478.9594659800923	0.02300000000000485
-479.4254002082258	0.05366666666666182
-479.89135691187255	-0.004333333333343035
-480.3573360926479	0.06766666666667637
-480.8233377521847	0.05733333333332363
-481.28936189210935	0.013666666666661815
-481.7554085140502	0.004666666666671517
-482.22147761962714	-0.029333333333343033
-482.6875692104729	0.0019999999999951493
-483.1536832882138	0.07100000000000971
-483.61981985448057	0.15199999999999514
-484.08597891089505	0.08333333333333333
-484.5521604590836	0.0889999999999903
-485.0183645006812	0.0389999999999903
-485.48459103731415	0.11333333333333333
-485.9508400706044	-0.025666666666656967
-486.4171116021848	0.0660000000000097
-486.88340563368376	0.009666666666671517
-487.3497221667342	-0.043333333333333335
-487.81606120295794	0.034666666666671515
-488.28242274398355	-0.034666666666671515
-488.74880679144593	0.0010000000000097012
-489.21521334697366	0.006666666666666667
-489.6816424121908	0.006666666666666667
-490.14809398872796	0.007666666666676368
-490.6145680782202	0.060333333333328486
-491.08106468229596	0.07100000000000971
-491.54758380257937	0.09033333333332848
-492.0141254407076	0.1910000000000097
-492.48068959830687	-0.036333333333338186
-492.94727627700786	0.0560000000000097
-493.41388547844775	0.08699999999999515
-493.8805172042485	0.09533333333332848
-494.34717145604293	-0.050666666666656965
-494.813848235466	0.07800000000000486
-495.2805475441505	0.085
-495.74726938372055	0.014333333333343034
-496.2140137558112	-0.051333333333338185
-496.68078066205516	-0.03766666666667637
-497.1475701040875	-0.012666666666676369
-497.6143820835323	-0.0439999999999903
-498.0812166020267	0.07866666666666182
-498.54807366120355	0.04
-499.0149532626978	0.12433333333334304
-499.48185540813364	0.030666666666656964
-499.94878009915027	0.012666666666676369
-500.4157273373806	0.015333333333328482
-500.8826971244617	0.06933333333334303
-501.3496894620156	0.0
-501.8167043516837	0.10466666666667152
-502.28374179509893	-0.005333333333328483
-502.75080179389835	0.08833333333333333
-503.21788434970614	0.1786666666666618
-503.6849894641659	0.07699999999999516
-504.15211713890614	0.015666666666656965
-504.6192673755683	0.06800000000000485
-505.0864401757787	0.07833333333333334
-505.5536355411745	0.09166666666666666
-506.02085347339505	0.07333333333333333
-506.48809397407314	0.02
-506.9553570448415	0.02300000000000485
-507.4226426873352	0.05966666666667152
-507.8899509031935	0.09833333333333333
-508.35728169405576	0.08266666666667637
-508.8246350615461	0.11233333333332363
-509.2920110073081	0.058333333333333334
-509.7594095329768	0.1039999999999903
-510.22683064019367	0.14466666666667152
-510.6942743305851	0.215
-511.1617406057946	0.23566666666665698
-511.62922946745715	0.28933333333334305
-512.0967409172122	0.264333333333343
-512.5642749566924	0.3110000000000097
-513.0318315875372	0.41833333333333333
-513.4994108113838	0.3546666666666715
-513.9670126298691	0.4796666666666715
-514.4346370446391	0.435
-514.9022840573178	0.5939999999999903
-515.3699536695513	0.6696666666666715
-515.8376458829763	0.9246666666666715
-516.3053606992369	0.9213333333333382
-516.7730981199612	1.2903333333333284
-517.2408581467931	1.6410000000000098
-517.7086407813741	2.263000000000005
-518.1764460253412	3.03100000000001
-518.6442738803315	3.97100000000001
-519.1121243479846	5.095333333333328
-519.5799974299438	6.025
-520.0478931278486	6.81399999999999
-520.5158114433318	7.048333333333333
-520.9837523780393	6.770333333333329
-521.4517159336124	6.20899999999999
-521.9197021116904	5.189666666666671
-522.3877109139106	4.01100000000001
-522.8557423419145	3.098333333333333
-523.3237963973435	2.4463333333333384
-523.7918730818434	1.7939999999999903
-524.2599723970492	1.41
-524.7280943446024	1.089333333333343
-525.1962389261444	0.89
-525.6644061433254	0.7233333333333334
-526.132595997774	0.6203333333333285
-526.6008084911402	0.5363333333333382
-527.0690436250634	0.44300000000000483
-527.5373014011916	0.4203333333333285
-528.0055818211553	0.3353333333333285
-528.4738848866069	0.3203333333333285
-528.9422105991858	0.23533333333332848
-529.4105589605377	0.27666666666666667
-529.8789299722998	0.29266666666667634
-530.3473236361201	0.23199999999999515
-530.8157399536378	0.11933333333334303
-531.2841789265054	0.1486666666666618
-531.7526405563557	0.18266666666667636
-532.2211248448366	0.1646666666666715
-532.6896317935916	0.12633333333333818
-533.1581614042711	0.11266666666667637
-533.6267136785101	0.1386666666666618
-534.0952886179564	0.036333333333338186
-534.5638862242538	0.14433333333334303
-535.0325064990544	0.17466666666667152
-535.5011494439935	0.175
-535.9698150607188	0.1289999999999903
-536.4385033508763	0.13199999999999515
-536.9072143161118	0.06066666666665697
-537.3759479580754	0.1489999999999903
-537.8447042784043	0.08199999999999515
-538.3134832787485	-0.03266666666667637
-538.782284960754	0.00800000000000485
-539.251109326071	0.035666666666656965
-539.7199563763363	0.018666666666661814
-540.1888261132026	0.030666666666656964
-540.6577185383156	0.0539999999999903
-541.1266336533254	0.00800000000000485
-541.5955714598736	-0.004666666666671517
-542.0645319596101	-0.0010000000000097012
-542.533515154181	0.0439999999999903
-543.0025210452385	0.03666666666666667
-543.471549634422	0.001333333333338184
-543.9406009233837	0.0660000000000097
-544.4096749137716	0.0360000000000097
-544.8787716072381	0.0689999999999903
-545.3478910054247	0.13166666666666665
-545.8170331099792	0.09266666666667636
-546.2861979225542	0.028333333333333332
-546.7553854448018	0.019333333333343035
-547.2245956783636	0.051333333333338185
-547.6938286248898	-0.004333333333343035
-548.1630842860326	0.07100000000000971
-548.6323626634443	0.06833333333333333
-549.1016637587664	0.025666666666656967
-549.5709875736515	0.02199999999999515
-550.0403341097515	-0.00800000000000485
-550.5097033687211	0.023666666666661815
-550.9790953521997	0.01800000000000485
-551.4485100618417	-0.003666666666661816
-551.9179474992993	-0.0389999999999903
-552.3874076662273	0.0639999999999903
-552.8568905642691	0.0789999999999903
-553.326396195077	0.013333333333333334
-553.7959245603034	0.07300000000000485
-554.2654756616051	0.013666666666661815
-554.7350495006234	-0.033666666666661814
-555.2046460790151	-0.003999999999990299
-555.6742653984302	0.08300000000000485
-556.1439074605275	0.06933333333334303
-556.6135722669509	0.0010000000000097012
-557.0832598193547	0.006999999999995149
-557.5529701193913	0.050666666666656965
-558.0227031687151	0.06533333333332848
-558.4924589689829	0.11133333333333818
-558.9622375218382	0.044333333333343036
-559.4320388289378	0.13266666666667637
-559.901862891936	0.013000000000004851
-560.3717097124897	0.07699999999999516
-560.8415792922447	-0.02033333333332848
-561.3114716328574	-0.04800000000000485
-561.7813867359847	-0.015333333333328482
-562.2513246032833	0.018666666666661814
-562.7212852363965	-0.02300000000000485
-563.1912686369857	0.004666666666671517
-563.6612748067051	-0.033666666666661814
-564.1313037472138	-0.0939999999999903
-564.6013554601575	-0.08600000000000971
-565.0714299471971	0.01800000000000485
-565.5415272099829	-0.06233333333332363
-566.0116472501801	-0.020666666666656966
-566.4817900694323	-0.07733333333332364
-566.9519556694008	-0.0016666666666666668
-567.4221440517421	0.015
-567.8923552181149	-0.02
-568.3625891701673	0.025333333333328482
-568.8328459095582	0.09066666666665696
-569.3031254379463	-0.050666666666656965
-569.7734277569925	-0.025
-570.2437528683452	-0.01800000000000485
-570.7141007736628	-0.004666666666671517
-571.1844714746044	-0.049666666666671515
-571.6548649728329	-0.06699999999999515
-572.1252812699944	-0.07433333333334304
-572.5957203677541	-0.028999999999990297
-573.0661822677644	-0.03
-573.5366669716926	0.07633333333333818
-574.007174481187	0.010666666666656966
-574.4777047979082	-0.025
-574.9482579235155	-0.02800000000000485
-575.4188338596717	-0.03833333333333333
-575.889432608027	-0.05
-576.360054170247	-0.05633333333333818
-576.8306985479859	0.05699999999999515
-577.3013657429113	-0.006666666666666667
-577.7720557566712	-0.10199999999999515
-578.242768590931	-0.07933333333334304
-578.7135042473494	0.04233333333332363
-579.1842627275896	-0.011000000000009702
-579.6550440333061	0.014333333333343034
-580.1258481661622	-0.0439999999999903
-580.5966751278165	0.016333333333338185
-581.0675249199302	0.06466666666667152
-581.5383975441686	0.02699999999999515
-582.0092930021859	-0.08766666666667637
-582.4802112956436	-0.02033333333332848
-582.9511524262044	-0.057666666666676365
-583.422116395534	-0.05266666666667637
-583.8931032052844	-0.06466666666667152
-584.3641128571234	-0.10566666666665697
-584.8351453527096	-0.014666666666671517
-585.3062006937128	0.006999999999995149
-585.7772788817853	0.0016666666666666668
-586.2483799185924	0.019666666666671516
-586.7195038057973	0.06699999999999515
-587.1906505450675	0.0760000000000097
-587.6618201380553	0.10033333333332849
-588.1330125864282	0.16800000000000484
-588.6042278918516	0.08866666666666181
-589.0754660559908	0.0189999999999903
-589.5467270805024	0.05966666666667152
-590.0180109670519	0.013000000000004851
-590.4893177173043	0.013666666666661815
-590.9606473329275	-0.035333333333328484
-591.4319998155779	0.028666666666661816
-591.9033751669209	-0.07733333333332364
-592.3747733886241	-0.008666666666661816
-592.8461944823549	0.035666666666656965
-593.3176384497699	0.06366666666666182
-593.7891052925389	0.03133333333333818
-594.2605950123251	0.025
-594.732107610798	-0.04800000000000485
-595.2036430896144	0.06366666666666182
-595.6752014504461	0.08833333333333333
-596.1467826949563	0.034333333333343034
-596.6183868248166	-0.008999999999990299
-597.090013841684	0.075
-597.5616637472281	0.03233333333332363
-598.0333365431163	0.014333333333343034
-598.5050322310183	-0.06433333333334304
-598.9767508125929	-0.03133333333333818
-599.4484922895119	-0.06699999999999515
-599.9202566634386	-0.02699999999999515
-600.3920439360492	-0.020666666666656966
-600.863854108998	-0.0889999999999903
-601.3356871839613	0.02699999999999515
-601.8075431626023	-0.06199999999999515
-602.2794220465906	-0.06699999999999515
-602.7513238376002	-0.05533333333332848
-603.2232485372857	-0.11133333333333818
-603.6951961473254	-0.09433333333334304
-604.1671666693824	0.04066666666665696
-604.6391601051329	-0.03766666666667637
-605.1111764562378	0.03666666666666667
-605.583215724367	0.11866666666666181
-606.05527791119	0.0310000000000097
-606.5273630183831	0.11566666666665697
-606.999471047605	0.04233333333332363
-607.4716020005297	0.09066666666665696
-607.943755878825	-0.1039999999999903
-608.4159326841688	-0.03833333333333333
-608.8881324182223	-0.1503333333333285
-609.3603550826554	-0.014666666666671517
-609.8326006791439	0.0360000000000097
-610.3048692093575	0.023666666666661815
-610.7771606749619	-0.03933333333334303
-611.2494750776308	0.07
-611.721812419036	-0.03800000000000485
-612.1941727008518	-0.011000000000009702
-612.6665559247411	-0.09666666666666666
-613.1389620923824	0.06133333333333819
-613.611391205443	0.0410000000000097
-614.0838432656016	-0.02733333333332363
-614.5563182745187	0.06966666666667151
-615.0288162338753	-0.0006666666666569654
-615.5013371453408	0.06633333333333818
-615.9738810105914	0.0539999999999903
-616.4464478312925	0.020666666666656966
-616.9190376091203	-0.05333333333333334
-617.3916503457488	0.02800000000000485
-617.864286042854	-0.00800000000000485
-618.3369447021014	-0.050333333333328484
-618.8096263251693	-0.027666666666676366
-619.2823309137297	0.029666666666671518
-619.7550584694607	-0.013333333333333334
-620.2278089940298	-0.04133333333333818
-620.7005824891135	0.028999999999990297
-621.1733789563854	0.04066666666665696
-621.6461983975241	-0.052333333333323635
-622.1190408141993	-0.0003333333333284827
-622.5919062080848	0.06866666666666181
-623.0647945808612	-0.07033333333332849
-623.5377059342026	0.05199999999999515
-624.0106402697763	0.030666666666656964
-624.4835975892653	0.03333333333333333
-624.9565778943412	0.0003333333333284827
-625.4295811866824	0.025666666666656967
-625.9026074679693	0.050333333333328484
-626.3756567398653	-0.0310000000000097
-626.8487290040574	-0.11666666666666667
-627.321824262215	-0.0439999999999903
-627.7949425160232	0.022333333333323633
-628.2680837671494	0.012333333333323633
-628.7412480172742	0.04199999999999515
-629.2144352680758	0.07833333333333334
-629.6876455212326	0.04766666666667637
-630.1608787784166	0.05566666666665696
-630.6341350413081	0.025666666666656967
-631.1074143115856	0.029666666666671518
-631.5807165909295	0.07566666666665696
-632.0540418810094	0.11933333333334303
-632.5273901835083	0.01199999999999515
-633.0007615001064	-0.023333333333333334
-633.4741558324843	0.033666666666661814
-633.9475731823117	-0.05533333333332848
-634.4210135512734	0.023333333333333334
-634.8944769410457	0.06366666666666182
-635.3679633533155	0.04
-635.8414727897504	0.023666666666661815
-636.315005252035	0.024666666666671517
-636.7885607418502	0.0989999999999903
-637.2621392608784	0.15733333333332364
-637.7357408107915	0.08366666666666181
-638.2093653932745	0.04066666666665696
-638.6830130100077	0.04633333333333818
-639.1566836626739	0.0910000000000097
-639.6303773529492	0.04766666666667637
-640.104094082512	0.05266666666667637
-640.5778338530494	0.09966666666667151
-641.0515966662439	-0.009333333333343035
-641.5253825237696	0.008999999999990299
-641.9991914273114	-0.006999999999995149
-642.4730233785497	-0.13366666666666183
-642.9468783791716	-0.22433333333334304
-643.4207564308512	-0.013999999999990298
-643.894657535273	-0.14033333333332848
-644.3685816941202	-0.08600000000000971
-644.8425289090794	-0.07633333333333818
-645.3164991818247	-0.04
-645.7904925140433	-0.01699999999999515
-646.2645089074176	0.03133333333333818
-646.7385483636306	-0.03
-647.2126108843712	0.03300000000000485
-647.6866964713114	-0.08699999999999515
-648.1608051261403	-0.008333333333333333
-648.6349368505428	-0.0660000000000097
-649.1090916462059	0.017333333333323632
-649.5832695148059	0.058333333333333334
-650.0574704580297	0.09233333333332364
-650.5316944775642	0.11833333333333333
-651.0059415750944	0.09033333333332848
-651.4802117522987	0.1039999999999903
-651.9545050108684	0.012333333333323633
-652.4288213524839	0.025666666666656967
-652.9031607788367	0.08033333333332848
-653.377523291605	-0.03266666666667637
-653.851908892476	0.02800000000000485
-654.3263175831366	-0.1289999999999903
-654.8007493652782	-0.04466666666667152
-655.275204240577	0.01199999999999515
-655.7496822107221	-0.011666666666666667
-656.2241832774027	0.02733333333332363
-656.6987074423081	-0.09266666666667636
-657.1732547071144	-0.011000000000009702
-657.647825073515	-0.1260000000000097
-658.1224185431972	-0.008999999999990299
-658.5970351178521	-0.0189999999999903
-659.071674799156	-0.005
-659.5463375888046	0.02266666666667637
-660.0210234884827	0.030666666666656964
-660.4957324998816	-0.05733333333332363
-660.970464624684	0.003999999999990299
-661.4452198645815	0.024333333333343036
-661.9199982212587	0.1110000000000097
-662.3947996964134	0.05966666666667152
-662.8696242917221	0.059333333333343036
-663.3444720088801	0.043666666666661816
-663.8193428495747	0.0439999999999903
-664.2942368154993	-0.07533333333332848
-664.7691539083344	-0.01199999999999515
-665.2440941297757	0.02033333333332848
-665.7190574815126	0.013333333333333334
-666.1940439652361	0.02733333333332363
-666.6690535826314	0.030666666666656964
-667.1440863353895	0.008666666666661816
-667.6191422252042	0.028999999999990297
-668.0942212537668	0.04766666666667637
-668.5693234227599	0.06699999999999515
-669.0444487338814	0.018333333333333333
-669.5195971888182	0.16733333333332362
-669.9947687892642	0.10533333333332848
-670.4699635369146	-0.005666666666656966
-670.9451814334525	-0.03166666666666667
-671.4204224805712	0.07866666666666182
-671.8956866799642	-0.04766666666667637
-672.3709740333295	-0.08766666666667637
-672.8462845423476	-0.009666666666671517
-673.3216182087161	-0.003666666666661816
-673.7969750341267	-0.034333333333343034
-674.2723550202793	0.06433333333334304
-674.7477581688544	0.035666666666656965
-675.2231844815498	0.045
-675.6986339600613	0.12066666666665697
-676.1741066060845	0.06733333333332363
-676.6496024213021	0.10199999999999515
-677.1251214074143	0.08733333333332363
-677.6006635661165	0.05566666666665696
-678.0762288991046	-0.006999999999995149
-678.5518174080635	-0.029666666666671518
-679.0274290946908	0.002333333333323632
-679.5030639606846	0.07100000000000971
-679.9787220077426	0.051333333333338185
-680.4544032375497	0.10733333333332364
-680.9301076518038	0.028666666666661816
-681.4058352522029	0.01699999999999515
-681.8815860404445	0.026000000000009703
-682.3573600182182	-0.005666666666656966
-682.8331571872193	-0.1253333333333285
-683.308977549148	-0.023333333333333334
-683.7848211057002	0.017333333333323632
-684.2606878585669	0.011333333333338184
-684.7365778094462	0.004333333333343035
-685.2124909600358	0.015333333333328482
-685.688427312038	-0.04533333333332848
-686.1643868671355	-0.0006666666666569654
-686.640369627037	-0.1460000000000097
-687.1163755934316	-0.02733333333332363
-687.592404768028	-0.059333333333343036
-688.0684571525112	-0.051666666666666666
-688.5445327485811	-0.043333333333333335
-689.0206315579399	-0.014666666666671517
-689.4967535822876	-0.011000000000009702
-689.9728988233136	-0.1296666666666715
-690.4490672827199	-0.06266666666667636
-690.9252589622043	-0.06466666666667152
-691.4014738634692	-0.13766666666667637
-691.8777119882124	0.013333333333333334
-692.3539733381273	-0.050333333333328484
-692.8302579149183	-0.0006666666666569654
-693.3065657202812	-0.024333333333343036
-693.782896755916	-0.005333333333328483
-694.2592510235271	0.075
-694.7356285248057	0.013999999999990298
-695.2120292614607	0.05566666666665696
-695.6884532351831	0.06133333333333819
-696.1649004476822	0.0989999999999903
-696.6413709006488	0.017333333333323632
-697.1178645957918	-0.0033333333333333335
-697.5943815348027	-0.019333333333343035
-698.0709217193943	-0.02266666666667637
-698.547485151258	0.03333333333333333
-699.0240718320983	-0.023333333333333334
-699.5006817636153	-0.042666666666676366
-699.977314947513	-0.021333333333338183
-700.4539713854917	-0.059333333333343036
-700.9306510792559	-0.018666666666661814
-701.4073540305009	0.02800000000000485
-701.8840802409356	0.01
-702.3608297122558	0.014666666666671517
-702.8376024461702	-0.006666666666666667
-703.3143984443786	-0.058333333333333334
-703.7912177085856	-0.012666666666676369
-704.2680602404868	-0.07
-704.7449260417994	-0.06
-705.221815114215	0.015333333333328482
-705.6987274594424	0.02199999999999515
-706.1756630791813	-0.004666666666671517
-706.6526219751405	0.06800000000000485
-707.1296041490159	0.006333333333338184
-707.6066096025246	0.15133333333333818
-708.0836383373583	0.03333333333333333
-708.5606903552296	0.0160000000000097
-709.0377656578345	0.006333333333338184
-709.5148642468903	-0.015666666666656965
-709.9919861240926	0.0239999999999903
-710.4691312911503	-0.08833333333333333
-710.9462997497633	0.06666666666666667
-711.4234915016445	0.07666666666666666
-711.9007065484986	-0.0016666666666666668
-712.3779448920254	-0.03766666666667637
-712.855206533938	0.017666666666676368
-713.3324914759364	0.01699999999999515
-713.8097997197294	-0.016333333333338185
-714.2871312670255	-0.03833333333333333
-714.7644861195292	0.02266666666667637
-715.2418642789494	-0.12866666666666182
-715.71926574699	-0.04466666666667152
-716.19669052536	-0.13333333333333333
-716.6741386157682	0.028999999999990297
-717.1516100199144	-0.01800000000000485
-717.6291047395205	-0.04066666666665696
-718.1066227762776	-0.005333333333328483
-718.5841641319076	-0.025666666666656967
-719.0617288081106	-0.002333333333323632
-719.5393168065996	-0.011000000000009702
-720.0169281290788	0.0689999999999903
-720.4945627772613	0.004666666666671517
-720.9722207528516	0.030333333333328483
-721.4499020575627	0.05433333333334303
-721.9276066930988	-0.07566666666665696
-722.4053346611774	0.034333333333343034
-722.8830859634986	0.002333333333323632
-723.3608606017754	0.07
-723.8386585777207	0.02266666666667637
-724.3164798930433	0.006333333333338184
-724.7943245494477	0.028666666666661816
-725.272192548651	0.0189999999999903
-725.7500838923621	0.03933333333334303
-726.2279985822896	0.07933333333334304
-726.7059366201466	0.1389999999999903
-727.1838980076462	0.014333333333343034
-727.6618827464928	-0.03266666666667637
-728.1398908384035	-0.0310000000000097
-728.6179222850873	-0.0010000000000097012
-729.095977088257	-0.03166666666666667
-729.5740552496214	0.08366666666666181
-730.052156770898	0.028999999999990297
-730.5302816537911	-0.0006666666666569654
-731.0084299000223	-0.006999999999995149
-731.4866015113004	-0.005666666666656966
-731.964796489334	0.011666666666666667
-732.4430148358406	-0.011666666666666667
-732.9212565525332	0.04766666666667637
-733.3995216411205	-0.017333333333323632
-733.8778101033242	0.023333333333333334
-734.3561219408443	-0.055
-734.8344571554113	-0.06633333333333818
-735.3128157487251	-0.025333333333328482
-735.7911977225033	-0.01699999999999515
-736.2696030784673	0.028666666666661816
-736.7480318183216	-0.042666666666676366
-737.2264839437879	-0.005333333333328483
-737.7049594565793	0.02033333333332848
-738.1834583584089	-0.02800000000000485
-738.6619806509894	-0.043000000000004854
-739.1405263360386	0.012666666666676369
-739.6190954152737	-0.1410000000000097
-740.0976878904078	-0.07266666666667637
-740.5763037631581	-0.05366666666666182
-741.054943035242	0.03199999999999515
-741.5336057083684	-0.019666666666671516
-742.0122917842632	0.005666666666656966
-742.4910012646309	0.03733333333332363
-742.9697341512017	0.08966666666667152
-743.44849044568	-0.012333333333323633
-743.927270149792	-0.04133333333333818
-744.4060732652506	0.03766666666667637
-744.8848997937732	-0.10633333333333818
-745.3637497370773	0.0989999999999903
-745.8426230968801	0.006666666666666667
-746.3215198748991	0.017666666666676368
-746.8004400728515	-0.03233333333332363
-747.2793836924593	-0.10233333333332363
-747.7583507354353	-0.03933333333334303
-748.2373412035014	-0.051666666666666666
-748.716355098379	-0.07633333333333818
-749.1953924217772	0.030333333333328483
-749.6744531754217	-0.022333333333323633
-750.1535373610302	-0.026333333333338184
-750.6326449803285	0.0239999999999903
-751.111776035021	0.002333333333323632
-751.5909305268425	0.06233333333332363
-752.0701084575018	0.04800000000000485
-752.5493098287246	-0.005
-753.0285346422287	0.003999999999990299
-753.5077828997398	-0.011666666666666667
-753.987054602967	-0.06199999999999515
-754.4663497536402	0.021666666666666667
-754.9456683534771	0.02
-755.4250104042037	-0.028333333333333332
-755.9043759075286	-0.0019999999999951493
-756.3837648651867	0.029333333333343033
-756.8631772788864	0.015
-757.3426131503628	0.09800000000000485
-757.8220724813286	0.08
-758.3015552735102	0.11533333333332849
-758.7810615286247	0.09199999999999516
-759.2605912483939	0.023333333333333334
-759.7401444345481	0.0789999999999903
-760.2197210888049	0.04699999999999515
-760.6993212128901	0.005
-761.1789448085212	0.10866666666666182
-761.6585918774243	0.09333333333333334
-762.1382624213211	0.10800000000000486
-762.6179564419375	0.11233333333332363
-763.0976739409954	-0.009333333333343035
-763.5774149202207	0.001333333333338184
-764.0571793813351	0.05566666666665696
-764.5369673260649	0.0189999999999903
-765.0167787561315	0.05
-765.4966136732611	0.06166666666666667
-765.9764720791754	0.058999999999990296
-766.4563539756049	0.0610000000000097
-766.9362593642668	0.10699999999999515
-767.4161882468959	0.013666666666661815
-767.8961406252051	0.08966666666667152
-768.3761165009338	-0.017666666666676368
-768.856115875799	-0.025333333333328482
-769.336138751527	0.022333333333323633
-769.8161851298437	0.06133333333333819
-770.2962550124796	0.025
-770.7763484011564	0.0410000000000097
-771.2564652976043	0.07300000000000485
-771.7366057035454	-0.004666666666671517
-772.2167696207097	0.07100000000000971
-772.6969570508234	-0.034333333333343034
-773.1771679956125	-0.09866666666666181
-773.6574024568075	-0.05266666666667637
-774.1376604361301	-0.04766666666667637
-774.6179419353149	-0.08600000000000971
-775.0982469560837	-0.03833333333333333
-775.578575500167	0.06266666666667636
-776.0589275692992	-0.07199999999999515
-776.5393031651936	-0.013000000000004851
-777.0197022895935	0.04066666666665696
-777.5001249442207	-0.05966666666667152
-777.9805711308056	-0.05533333333332848
-778.4610408510741	0.02666666666666667
-778.941534106761	0.02666666666666667
-779.422050899588	0.07800000000000486
-779.9025912312899	0.001333333333338184
-780.383155103597	0.04233333333332363
-780.8637425182397	0.06866666666666181
-781.3443534769441	-0.03233333333332363
-781.8249879814406	-0.05199999999999515
-782.3056460334637	-0.058666666666661815
-782.7863276347398	0.0189999999999903
-783.2670327870034	-0.005333333333328483
-783.7477614919806	0.019666666666671516
-784.2285137514104	-0.058999999999990296
-784.7092895670147	0.02699999999999515
-785.190088940528	-0.0960000000000097
-785.6709118736851	-0.06933333333334303
-786.1517583682121	0.07800000000000486
-786.632628425848	0.075
-787.1135220483189	0.014333333333343034
-787.5944392373596	0.04866666666666181
-788.0753799947003	0.055
-788.5563443220758	-0.029666666666671518
-789.0373322212208	-0.07933333333334304
-789.5183436938614	-0.06699999999999515
-789.9993787417368	-0.030333333333328483
-790.4804373665771	-0.0010000000000097012
-790.9615195701215	0.06066666666665697
-791.4426253540961	0.04666666666666667
-791.9237547202398	0.095
-792.4049076702788	0.05800000000000485
-792.8860842059564	0.09800000000000485
-793.3672843290032	0.06066666666665697
-793.8485080411537	-0.07566666666665696
-794.3297553441382	0.012666666666676369
-794.8110262397004	-0.056666666666666664
-795.2923207295705	-0.011000000000009702
-795.7736388154832	-0.06533333333332848
-796.2549804991734	-0.08666666666666667
-796.7363457823756	-0.1253333333333285
-797.217734666829	-0.1310000000000097
-797.6991471542682	-0.07300000000000485
-798.180583246428	-0.06333333333333334
-798.6620429450433	-0.043333333333333335
-799.1435262518528	-0.013999999999990298
-799.6250331685959	0.060333333333328486
-800.1065636969985	0.057666666666676365
-800.5881178388125	0.11433333333334303
-801.06969559576	0.05333333333333334
-801.5512969695884	-0.013000000000004851
-802.0329219620326	-0.049333333333343034
-802.5145705748272	0.06366666666666182
-802.9962428097114	-0.03300000000000485
-803.4779386684241	0.0789999999999903
-803.9596581527046	0.09300000000000486
-804.4414012642874	0.028333333333333332
-804.9231680049115	0.08633333333333819
-805.4049583763206	0.025
-805.8867723802448	0.03733333333332363
-806.368610018432	-0.0003333333333284827
-806.8504712926126	0.125
-807.3323562045299	-0.05633333333333818
-807.8142647559273	0.030333333333328483
-808.2961969485352	0.029666666666671518
-808.7781527841014	0.051333333333338185
-809.2601322643649	-0.030666666666656964
-809.7421353910604	0.013333333333333334
-810.2241621659313	-0.01800000000000485
-810.7062125907211	-0.026333333333338184
-811.1882866671644	0.03933333333334303
-811.6703843970047	-0.02699999999999515
-812.1525057819853	0.0539999999999903
-812.634650823841	0.06666666666666667
-813.1168195243196	0.05433333333334303
-813.5990118851643	0.01199999999999515
-814.0812279081055	0.09433333333334304
-814.5634675948954	-0.05366666666666182
-815.0457309472688	-0.0019999999999951493
-815.5280179669776	-0.044333333333343036
-816.0103286557522	-0.05633333333333818
-816.4926630153448	-0.0410000000000097
-816.9750210474899	-0.07033333333332849
-817.4574027539397	-0.04533333333332848
-817.9398081364247	-0.05
-818.4222371967012	0.03933333333334303
-818.9046899365038	0.06633333333333818
-819.3871663575804	0.02666666666666667
-819.8696664616701	0.06666666666666667
