-194.34305441739858	-0.023333333333333334
-194.79536075947718	-0.185
-195.24768859823178	-0.042666666666676366
-195.70003793519538	-0.015
-196.15240877190544	0.10800000000000486
-196.60480110989712	0.017666666666676368
-197.0572149506927	0.0489999999999903
-197.50965029583173	0.03866666666666182
-197.96210714684943	-0.0660000000000097
-198.41458550527886	-0.03800000000000485
-198.86708537264877	-0.09266666666667636
-199.31960675049436	-0.08366666666666181
-199.77214964035304	0.02
-200.22471404376003	-0.04633333333333818
-200.6772999622419	0.05300000000000485
-201.12990739733607	-0.04
-201.58253635057773	0.03833333333333333
-202.03518682350864	-0.01800000000000485
-202.48785881765102	-0.030666666666656964
-202.9405523345444	-0.08733333333332363
-203.39326737572623	-0.06
-203.8460039427339	-0.051666666666666666
-204.29876203709608	-0.026333333333338184
-204.75154166035023	0.07366666666666181
-205.20434281403158	0.0033333333333333335
-205.657165499684	0.013333333333333334
-206.1100097188319	0.04800000000000485
-206.5628754730148	-0.021000000000009702
-207.01576276377017	0.051000000000009704
-207.4686715926397	0.021666666666666667
-207.92160196115	0.03733333333332363
-208.37455387084057	-0.00800000000000485
-208.82752732325102	0.013999999999990298
-209.2805223199209	0.0439999999999903
-209.73353886238107	-0.04533333333332848
-210.186576952169	0.0060000000000097016
-210.6396365908242	0.007333333333323632
-211.09271777988843	-0.028333333333333332
-211.5458205208926	-0.049333333333343034
-211.99894481537407	0.03766666666667637
-212.45209066487462	0.007333333333323632
-212.90525807093158	-0.028666666666661816
-213.35844703508894	-0.04866666666666181
-213.81165755887318	-0.1296666666666715
-214.26488964382827	-0.02699999999999515
-214.7181432914937	-0.012333333333323633
-215.1714185034113	0.011666666666666667
-215.62471528111405	0.043000000000004854
-216.07803362614374	0.043333333333333335
-216.53137354003772	-0.035333333333328484
-216.9847350243421	0.06433333333334304
-217.43811808058777	-0.028333333333333332
-217.8915227103186	0.04833333333333333
-218.3449489150742	0.019666666666671516
-218.79839669639847	-0.03166666666666667
-219.2518660558223	0.0060000000000097016
-219.7053569948917	-0.033666666666661814
-220.15886951514634	-0.023666666666661815
-220.61240361813222	-0.07566666666665696
-221.06595930538026	0.0439999999999903
-221.51953657843652	0.04466666666667152
-221.9731354388406	0.0006666666666569654
-222.4267558881385	0.1389999999999903
-222.88039792786336	0.0660000000000097
-223.3340615595612	0.0010000000000097012
-223.78774678477382	-0.05300000000000485
-224.24145360504505	-0.003666666666661816
-224.69518202191014	0.023666666666661815
-225.14893203691736	-0.0439999999999903
-225.6027036516041	0.005666666666656966
-226.05649686752074	0.010666666666656966
-226.51031168620037	0.012333333333323633
-226.96414810918904	0.03
-227.41800613802852	-0.008999999999990299
-227.87188577426917	0.06633333333333818
-228.3257870194441	0.027666666666676366
-228.77970987510153	0.02033333333332848
-229.23365434278105	0.08566666666665697
-229.68762042403517	0.008333333333333333
-230.14160812039702	-0.013666666666661815
-230.59561743341484	0.15600000000000971
-231.04964836463031	0.09300000000000486
-231.50370091559606	-0.049333333333343034
-231.9577750878451	-0.05533333333332848
-232.41187088292793	-0.09966666666667151
-232.86598830238617	-0.10699999999999515
-233.32012734776816	-0.03666666666666667
-233.7742880206199	-0.013333333333333334
-234.22847032247884	-0.09800000000000485
-234.68267425489535	-0.007333333333323632
-235.13689981941337	-0.0339999999999903
-235.59114701758327	0.0189999999999903
-236.04541585094248	0.03333333333333333
-236.49970632103924	-0.04633333333333818
-236.95401842942178	0.02266666666667637
-237.40835217763833	-0.035666666666656965
-237.86270756722848	-0.029333333333343033
-238.31708459974044	-0.036333333333338186
-238.7714832767225	-0.04833333333333333
-239.22590359972503	-0.05300000000000485
-239.68034557028543	-0.0189999999999903
-240.13480918995845	-0.05466666666667152
-240.58929446028583	-0.005333333333328483
-241.04380138282232	-0.045
-241.49832995910532	0.050333333333328484
-241.9528801906874	0.0239999999999903
-242.4074520791168	0.035666666666656965
-242.86204562594392	0.012666666666676369
-243.31666083271054	0.01
-243.771297700967	0.04800000000000485
-244.2259562322616	0.021666666666666667
-244.6806364281469	-0.006999999999995149
-245.13533829016242	0.04833333333333333
-245.59006181986516	0.09300000000000486
-246.04480701879896	0.0239999999999903
-246.4995738885186	-0.003666666666661816
-246.95436243056577	0.04866666666666181
-247.40917264649312	0.07266666666667637
-247.8640045378488	-0.03833333333333333
-248.31885810618982	0.11966666666667151
-248.7737333530535	-0.018333333333333333
-249.22863027999898	0.030333333333328483
-249.68354888857013	0.07833333333333334
-250.13848918032602	-0.011000000000009702
-250.59345115680628	0.12033333333332848
-251.04843481956775	0.015666666666656965
-251.5034401701587	0.04733333333332363
-251.9584672101339	0.0160000000000097
-252.41351594103722	0.051666666666666666
-252.86858636442344	0.07933333333334304
-253.3236784818451	0.09533333333332848
-253.77879229485046	0.08699999999999515
-254.23392780499861	0.03933333333334303
-254.6890850138291	0.02199999999999515
-255.14426392290102	0.06166666666666667
-255.59946453376477	0.060333333333328486
-256.0546868479773	0.08233333333332363
-256.50993086708246	0.07733333333332364
-256.96519659263504	0.10800000000000486
-257.42048402618974	0.06633333333333818
-257.8757931693035	0.007666666666676368
-258.3311240235181	0.03666666666666667
-258.7864765903947	0.012333333333323633
-259.2418508714817	0.051333333333338185
-259.6972468683423	-0.02699999999999515
-260.15266458251625	-0.009333333333343035
-260.6081040155625	0.05566666666665696
-261.0635651690359	0.010333333333328483
-261.51904804449543	0.09699999999999515
-261.97455264348514	0.1
-262.43007896756177	0.185
-262.88562701828454	0.11833333333333333
-263.34119679720595	0.145
-263.7967883058765	0.15833333333333333
-264.25240154585515	0.11233333333332363
-264.70803651869454	0.1436666666666618
-265.16369322595375	0.10100000000000971
-265.619371669181	0.12833333333333333
-266.0750718499376	0.0889999999999903
-266.53079376977394	0.03800000000000485
-266.98653743025557	0.07
-267.4423028329264	-0.011333333333338184
-267.8980899793455	0.018333333333333333
-268.35389887107203	0.08266666666667637
-268.809729509665	0.05533333333332848
-269.26558189667264	0.075
-269.7214560336541	0.027666666666676366
-270.1773519221706	0.057666666666676365
-270.6332695637768	0.07566666666665696
-271.0892089600255	0.0560000000000097
-271.5451701124777	0.06666666666666667
-272.0011530226883	0.08166666666666667
-272.45715769222284	0.1660000000000097
-272.91318412262734	0.17466666666667152
-273.3692323154632	0.1410000000000097
-273.8253022722893	0.21166666666666667
-274.28139399466926	0.2439999999999903
-274.73750748415335	0.2360000000000097
-275.19364274230077	0.24800000000000486
-275.6497997706705	0.250666666666657
-276.10597857082377	0.2060000000000097
-276.56217914432193	0.2453333333333285
-277.0184014927153	0.26066666666665694
-277.47464561756743	0.295666666666657
-277.9309115204373	0.319333333333343
-278.38719920288827	0.37199999999999517
-278.84350866647304	0.26366666666666183
-279.2998399127528	0.27433333333334303
-279.75619294328885	0.40166666666666667
-280.21256775964673	0.4639999999999903
-280.6689643633747	0.44333333333333336
-281.12538275604055	0.44666666666666666
-281.5818229392033	0.39800000000000485
-282.03828491442636	0.3989999999999903
-282.4947686832645	0.4310000000000097
-282.951274247279	0.29800000000000487
-283.4078016080354	0.39933333333334303
-283.8643507670972	0.435666666666657
-284.32092172601693	0.40933333333334304
-284.77751448636013	0.435666666666657
-285.23412904968814	0.4633333333333333
-285.69076541756647	0.4726666666666764
-286.1474235915499	0.5036666666666618
-286.6041035732062	0.45066666666665695
-287.0608053640923	0.5530000000000048
-287.5175289657802	0.5069999999999951
-287.9742743798204	0.5530000000000048
-288.4310416077828	0.4930000000000048
-288.8878306512286	0.4210000000000097
-289.34464151172347	0.45233333333332365
-289.80147419082215	0.505
-290.2583286900945	0.4360000000000097
-290.715205011104	0.5669999999999952
-291.17210315541405	0.6326666666666764
-291.62902312458584	0.48066666666665697
-292.0859649201829	0.6073333333333236
-292.54292854377076	0.5383333333333333
-292.99991399691714	0.5169999999999951
-293.45692128117906	0.47300000000000486
-293.91395039812414	0.46699999999999514
-294.3710013493181	0.5589999999999903
-294.8280741363286	0.4676666666666764
-295.2851687607126	0.5616666666666666
-295.74228522404	0.6213333333333382
-296.1994235278743	0.6683333333333333
-296.65658367378524	0.6313333333333382
-297.1137656633321	0.554333333333343
-297.57096949808255	0.6889999999999903
-298.02819517960216	0.6103333333333285
-298.48544270945877	0.6439999999999902
-298.9427120892222	0.6060000000000098
-299.40000332044724	0.584333333333343
-299.8573164047082	0.6343333333333431
-300.3146513435705	0.585
-300.7720081386043	0.4886666666666618
-301.22938679136854	0.5389999999999903
-301.68678730343316	0.5119999999999951
-302.1442096763681	0.43533333333332846
-302.60165391174115	0.5233333333333333
-303.0591200111157	0.48300000000000487
-303.51660797605945	0.4746666666666715
-303.97411780814025	0.5103333333333285
-304.43164950893447	0.41066666666665697
-304.88920307999683	0.38066666666665694
-305.34677852290173	0.37166666666666665
-305.80437583921673	0.4439999999999903
-306.2619950305163	0.4286666666666618
-306.71963609835933	0.46199999999999514
-307.1772990443202	0.4836666666666618
-307.63498386996446	0.5016666666666667
-308.0926905768685	0.570666666666657
-308.5504191665915	0.5530000000000048
-309.00816964070987	0.5186666666666618
-309.4659420007891	0.47699999999999515
-309.92373624840354	0.5363333333333382
-310.3815523851166	0.425666666666657
-310.8393904125025	0.495666666666657
-311.2972503321312	0.38
-311.7551321455748	0.42733333333332363
-312.21303585439887	0.41266666666667634
-312.6709614601733	0.444333333333343
-313.12890896447465	0.43766666666667636
-313.58687836887265	0.430666666666657
-314.0448696749352	0.4023333333333236
-314.50288288423224	0.38333333333333336
-314.9609179983401	0.38233333333332364
-315.41897501882875	0.43033333333332846
-315.8770539472681	0.3883333333333333
-316.3351547852281	0.4880000000000049
-316.79327753428515	0.3113333333333382
-317.2514221960114	0.29699999999999516
-317.70958877197455	0.3603333333333285
-318.16777726374886	0.3339999999999903
-318.62598767290865	0.3953333333333285
-319.08422000102377	0.3573333333333236
-319.54247424967286	0.4166666666666667
-320.00075042041937	0.30133333333333817
-320.45904851484397	0.44233333333332364
-320.9173685345167	0.44033333333332847
-321.3757104810161	0.3463333333333382
-321.8340743559077	0.39566666666665695
-322.2924601607681	0.41300000000000486
-322.7508678971735	0.47066666666665696
-323.20929756669835	0.4389999999999903
-323.6677491709125	0.3913333333333382
-324.1262227113924	0.31466666666667154
-324.58471818971447	0.3566666666666667
-325.04323560745513	0.32
-325.50177496617994	0.3163333333333382
-325.96033626746976	0.2689999999999903
-326.4189195129009	0.26366666666666183
-326.87752470405206	0.37166666666666665
-327.33615184248663	0.3030000000000049
-327.7948009297897	0.2460000000000097
-328.25347196753336	0.2683333333333333
-328.7121649573005	0.32866666666666183
-329.17087990065465	0.27066666666665695
-329.6296167991787	0.26666666666666666
-330.0883756544512	0.26733333333332365
-330.5471564680486	0.37766666666667636
-331.0059592415409	0.3326666666666764
-331.4647839765066	0.28833333333333333
-331.9236306745287	0.2953333333333285
-332.3824993371814	0.27933333333334304
-332.841389966039	0.21699999999999514
-333.30030256268014	0.24166666666666667
-333.75923712868115	0.2439999999999903
-334.2181936656272	0.26866666666666184
-334.67717217508607	0.24633333333333818
-335.13617265863843	0.19166666666666668
-335.59519511786516	0.2560000000000097
-336.05423955434696	0.2910000000000097
-336.5133059696538	0.31833333333333336
-336.9723943653707	0.32800000000000484
-337.431504743072	0.28566666666665697
-337.89063710434493	0.2796666666666715
-338.3497914507573	0.300666666666657
-338.80896778389416	0.3326666666666764
-339.2681661053341	0.23733333333332363
-339.72738641665796	0.22533333333332847
-340.18662871944645	0.2639999999999903
-340.6458930152738	0.33566666666665695
-341.10517930572087	0.2589999999999903
-341.56448759237264	0.2866666666666667
-342.0238178768078	0.3896666666666715
-342.48317016060497	0.24699999999999514
-342.9425444453427	0.2886666666666618
-343.4019407326039	0.27933333333334304
-343.86135902397376	0.37833333333333335
-344.3207993210264	0.25733333333332364
-344.7802616253449	0.21066666666665695
-345.23974593850994	0.20833333333333334
-345.69925226211103	0.355
-346.15878059771586	0.2519999999999952
-346.6183309469139	0.3953333333333285
-347.0779033112881	0.4246666666666715
-347.5374976924213	0.30533333333332846
-347.99711409189007	0.20533333333332848
-348.4567525112773	0.32300000000000484
-348.91641295217016	0.20833333333333334
-349.37609541615393	0.1889999999999903
-349.8357999048005	0.2846666666666715
-350.2955264196995	0.23733333333332363
-350.7552749624338	0.17166666666666666
-351.21504553458846	0.3
-351.6748381377421	0.3326666666666764
-352.13465277347984	0.33300000000000485
-352.59448944338675	0.3496666666666715
-353.05434814905016	0.33366666666666184
-353.51422889204645	0.29633333333333817
-353.9741316739629	0.26300000000000484
-354.43405649638464	0.29800000000000487
-354.8940033608989	0.16433333333334305
-355.35397226908435	0.16433333333334305
-355.8139632225282	0.15766666666667636
-356.2739762228155	0.22199999999999515
-356.73401127153585	0.32266666666667637
-357.19406837026554	0.3060000000000097
-357.65414752059405	0.3163333333333382
-358.1142487241087	0.34199999999999514
-358.5743719823988	0.2313333333333382
-359.0345172970388	0.2626666666666764
-359.49468466962236	0.3213333333333382
-359.95487410173456	0.3639999999999903
-360.4150855949649	0.31333333333333335
-360.875319150892	0.29199999999999515
-361.3355747711074	0.3283333333333333
-361.79585245719625	0.23766666666667638
-362.25615221074577	0.23933333333334303
-362.7164740333498	0.2946666666666715
-363.17681792658476	0.27366666666666184
-363.63718389204223	0.1189999999999903
-364.09757193130946	0.19766666666667637
-364.5579820459781	0.2086666666666618
-365.01841423763113	0.20766666666667638
-365.47886850785574	0.3189999999999903
-365.93934485824354	0.19033333333332847
-366.399843290384	0.2210000000000097
-366.8603638058601	0.21366666666666181
-367.32090640626336	0.2460000000000097
-367.78147109318115	0.30133333333333817
-368.24205786820716	0.2410000000000097
-368.70266673292434	0.255
-369.16329768892433	0.405
-369.6239507377966	0.25766666666667637
-370.08462588113264	0.24133333333333817
-370.54532312051765	0.2603333333333285
-371.00604245754323	0.24833333333333332
-371.46678389379883	0.1946666666666715
-371.92754743088034	0.19
-372.38833307036856	0.19866666666666183
-372.84914081385944	0.16833333333333333
-373.3099706629424	0.1486666666666618
-373.7708226192113	0.15733333333332364
-374.23169668424896	0.1960000000000097
-374.69259285965353	0.10433333333334303
-375.15351114701235	0.25733333333332364
-375.6144515479234	0.18566666666665696
-376.07541406396757	0.2653333333333285
-376.53639869674294	0.2689999999999903
-376.9974054478411	0.33166666666666667
-377.45843431885584	0.2633333333333333
-377.91948531137444	0.2689999999999903
-378.38055842698844	0.254333333333343
-378.84165366729604	0.2203333333333285
-379.30277103388886	0.21
-379.7639105283541	0.1310000000000097
-380.22507215228774	0.25833333333333336
-380.68625590728135	0.2639999999999903
-381.1474617949353	0.2036666666666618
-381.6086898168324	0.22333333333333333
-382.06993997457306	0.25333333333333335
-382.5312122697467	0.24766666666667636
-382.9925067039492	0.314333333333343
-383.45382327877866	0.3436666666666618
-383.9151619958224	0.26366666666666183
-384.3765228566743	0.23966666666667152
-384.83790586293225	0.24766666666667636
-385.2993110161967	0.17333333333333334
-385.76073831804837	0.17666666666666667
-386.22218777009186	0.28566666666665697
-386.68365937391667	0.21733333333332364
-387.14515313112736	0.16266666666667637
-387.60666904330685	0.24066666666665695
-388.0682071120576	0.2039999999999903
-388.52976733897566	0.17466666666667152
-388.99134972565685	0.21300000000000485
-389.4529542736928	0.14433333333334303
-389.9145809846795	0.21366666666666181
-390.3762298602194	0.15699999999999514
-390.83790090190627	0.16966666666667152
-391.2995941113338	0.22766666666667637
-391.7613094900981	0.13066666666665697
-392.22304703979927	0.0960000000000097
-392.68480676203774	0.18300000000000485
-393.1465886584029	0.20699999999999516
-393.608392730495	0.20433333333334303
-394.07021897991	0.14800000000000485
-394.53206740825254	0.19566666666665697
-394.99393801711204	0.25
-395.4558308080888	0.2339999999999903
-395.91774578278097	0.2310000000000097
-396.37968294279096	0.2489999999999903
-396.84164228971036	0.26166666666666666
-397.3036238251394	0.2816666666666667
-397.7656275506785	0.2996666666666715
-398.22765346793005	0.21366666666666181
-398.68970157848565	0.21300000000000485
-399.15177188394773	0.20066666666665697
-399.61386438591444	0.18466666666667153
-400.07597908599257	0.2639999999999903
-400.53811598576937	0.19233333333332364
-401.0002750868516	0.22266666666667637
-401.4624563908375	0.16833333333333333
-401.92465989933146	0.21666666666666667
-402.38688561392746	0.2196666666666715
-402.8491335362279	0.18300000000000485
-403.3114036678331	0.17233333333332362
-403.7736960103475	0.075
-404.2360105653672	0.16699999999999515
-404.69834733449255	0.15933333333334304
-405.160706319328	0.19833333333333333
-405.6230875214739	0.21666666666666667
-406.08549094253493	0.11366666666666182
-406.54791658410477	0.06933333333334303
-407.01036444779027	0.15433333333334304
-407.47283453519384	0.10666666666666667
-407.93532684791796	0.14733333333332363
-408.3978413875608	0.1589999999999903
-408.86037815572683	0.19333333333333333
-409.3229371540164	0.13199999999999515
-409.78551838404076	0.19866666666666183
-410.2481218473935	0.18266666666667636
-410.7107475456772	0.259333333333343
-411.1733954805007	0.21833333333333332
-411.63606565346873	0.08066666666665696
-412.0987580661772	0.24
-412.5614727202328	0.11233333333332363
-413.02420961724033	0.1910000000000097
-413.4869687588065	0.2946666666666715
-413.9497501465272	0.20800000000000485
-414.41255378201356	0.235
-414.87537966686597	0.1939999999999903
-415.3382278026954	0.10266666666667637
-415.801098191098	0.13233333333332364
-416.2639908336825	0.1439999999999903
-416.7269057320537	0.21133333333333817
-417.1898428878204	0.2646666666666715
-417.6528023025808	0.15866666666666182
-418.1157839779439	0.20266666666667638
-418.57878791551644	0.19833333333333333
-419.0418141169052	0.2676666666666764
-419.5048625837104	0.2153333333333285
-419.9679333175411	0.2773333333333236
-420.4310263200041	0.29633333333333817
-420.8941415927104	0.25266666666667636
-421.3572791372561	0.2536666666666618
-421.82043895525436	0.2603333333333285
-422.28362104831206	0.28800000000000486
-422.74682541803804	0.22533333333332847
-423.21005206603274	0.1439999999999903
-423.67330099390716	0.26699999999999513
-424.13657220326814	0.19766666666667637
-424.59986569572897	0.24433333333334303
-425.0631814728878	0.25566666666665694
-425.5265195363578	0.19666666666666666
-425.9898798877459	0.17300000000000484
-426.45326252866096	0.19233333333332364
-426.9166674607163	0.17633333333333817
-427.3800946855101	0.12233333333332364
-427.84354420465553	0.1639999999999903
-428.3070160197638	0.04766666666667637
-428.770510132446	0.10100000000000971
-429.2340265443025	0.14333333333333334
-429.69756525694646	0.13533333333332848
-430.16112627199124	0.17733333333332363
-430.62470959104576	0.22699999999999515
-431.08831521571466	0.21466666666667153
-431.5519431476091	0.1503333333333285
-432.0155933883424	0.15266666666667636
-432.4792659395277	0.25233333333332364
-432.9429608027654	0.17733333333332363
-433.4066779796732	0.10766666666667636
-433.87041747185987	0.1963333333333382
-434.334179280941	0.15733333333332364
-434.7979634085168	0.20766666666667638
-435.26176985620714	0.12466666666667152
-435.72559862562093	0.1363333333333382
-436.1894497183737	0.11733333333332363
-436.6533231360678	0.07800000000000486
-437.1172188803209	0.0489999999999903
-437.5811369527441	0.036333333333338186
-438.0450773549529	0.05333333333333334
-438.5090400885541	0.12699999999999514
-438.973025155161	0.13333333333333333
-439.43703255638684	0.060333333333328486
-439.90106229384924	0.14333333333333334
-440.36511436915504	0.06699999999999515
-440.82918878391536	-0.010666666666656966
-441.29328553975	0.10133333333333819
-441.7574046382722	0.13266666666667637
-442.2215460810888	0.18133333333333818
-442.68570986981524	0.11333333333333333
-443.1498960060691	0.09566666666665696
-443.614104491466	0.06
-444.07833532761254	0.10199999999999515
-444.5425885161265	0.16066666666665697
-445.00686405862325	0.11866666666666181
-445.4711619567226	0.14266666666667638
-445.935482212027	0.21366666666666181
-446.3998248261584	0.22366666666666182
-446.8641898007302	0.20033333333332848
-447.3285771373643	0.0539999999999903
-447.79298683766524	0.11
-448.25741890325503	0.17166666666666666
-448.72187333574703	0.07199999999999515
-449.18635013675885	0.08466666666667151
-449.65084930790806	0.25466666666667154
-450.11537085080585	0.18800000000000486
-450.5799147670698	0.0560000000000097
-451.04448105831756	0.1260000000000097
-451.5090697261711	0.21199999999999514
-451.97368077223723	0.1189999999999903
-452.4383141981357	0.10666666666666667
-452.90297000548634	0.16433333333334305
-453.36764819590894	0.12633333333333818
-453.8323487710146	0.1710000000000097
-454.29707173242315	0.10666666666666667
-454.7618170817522	0.05
-455.22658482062377	0.15866666666666182
-455.6913749506467	0.13
-456.15618747344746	0.18766666666667636
-456.6210223906392	0.24666666666666667
-457.0858797038461	0.24266666666667636
-457.55075941468147	0.16966666666667152
-458.01566152476505	0.12233333333332364
-458.48058603571457	0.23766666666667638
-458.9455329491584	0.10633333333333818
-459.41050226670126	0.18133333333333818
-459.8754939899715	0.1660000000000097
-460.3405081205869	0.15866666666666182
-460.80554466017145	0.13366666666666183
-461.27060361033637	0.1789999999999903
-461.7356849727057	0.2013333333333382
-462.2007887489016	0.21233333333332363
-462.66591494054575	0.1689999999999903
-463.1310635492517	0.155
-463.5962345766456	0.2196666666666715
-464.0614280243451	0.16300000000000486
-464.5266438939766	0.22933333333334305
-464.9918821871533	0.07300000000000485
-465.45714290550154	0.18199999999999514
-465.92242605064325	0.14833333333333334
-466.3877316242004	0.1789999999999903
-466.8530596277885	0.1810000000000097
-467.318410063036	0.09933333333334303
-467.7837829315627	0.23266666666667637
-468.24917823499277	0.26666666666666666
-468.71459597494373	0.12199999999999515
-469.18003615304195	0.1546666666666715
-469.64549877090946	0.20933333333334303
-470.1109838301681	0.22833333333333333
-470.57649133244644	0.1639999999999903
-471.0420212793577	0.1389999999999903
-471.5075736725304	0.2726666666666764
-471.9731485135887	0.19433333333334304
-472.4387458041588	0.2060000000000097
-472.90436554585847	0.24666666666666667
-473.37000774031173	0.20800000000000485
-473.83567238914713	0.2763333333333382
-474.3013594939909	0.25566666666665694
-474.7670690564607	0.24133333333333817
-475.2328010781829	0.3080000000000048
-475.6985555607837	0.3460000000000097
-476.16433250588943	0.30333333333333334
-476.6301319151221	0.23199999999999515
-477.0959537901058	0.2853333333333285
-477.561798132469	0.250666666666657
-478.0276649438424	0.2313333333333382
-478.49355422583926	0.2773333333333236
-478.9594659800923	0.30199999999999516
-479.4254002082258	0.3189999999999903
-479.89135691187255	0.2060000000000097
-480.3573360926479	0.335
-480.8233377521847	0.2610000000000097
-481.28936189210935	0.21766666666667636
-481.7554085140502	0.2536666666666618
-482.22147761962714	0.20233333333332362
-482.6875692104729	0.3339999999999903
-483.1536832882138	0.25533333333332847
-483.61981985448057	0.2810000000000097
-484.08597891089505	0.295666666666657
-484.5521604590836	0.3060000000000097
-485.0183645006812	0.315666666666657
-485.48459103731415	0.29333333333333333
-485.9508400706044	0.2689999999999903
-486.4171116021848	0.3939999999999903
-486.88340563368376	0.2626666666666764
-487.3497221667342	0.3233333333333333
-487.81606120295794	0.37766666666667636
-488.28242274398355	0.36266666666667635
-488.74880679144593	0.4189999999999903
-489.21521334697366	0.41766666666667634
-489.6816424121908	0.5626666666666764
-490.14809398872796	0.49233333333332363
-490.6145680782202	0.4760000000000097
-491.08106468229596	0.39233333333332365
-491.54758380257937	0.46566666666665696
-492.0141254407076	0.4596666666666715
-492.48068959830687	0.49733333333332364
-492.94727627700786	0.5363333333333382
-493.41388547844775	0.5810000000000097
-493.8805172042485	0.5976666666666763
-494.34717145604293	0.6316666666666667
-494.813848235466	0.5580000000000048
-495.2805475441505	0.6876666666666764
-495.74726938372055	0.7173333333333236
-496.2140137558112	0.7753333333333284
-496.68078066205516	0.7360000000000096
-497.1475701040875	0.8160000000000097
-497.6143820835323	0.8743333333333431
-498.0812166020267	0.8519999999999951
-498.54807366120355	0.9683333333333334
-499.0149532626978	1.104333333333343
-499.48185540813364	1.1073333333333237
-499.94878009915027	1.145666666666657
-500.4157273373806	1.2176666666666764
-500.8826971244617	1.4123333333333237
-501.3496894620156	1.4053333333333284
-501.8167043516837	1.5710000000000097
-502.28374179509893	1.745666666666657
-502.75080179389835	1.9069999999999951
-503.21788434970614	2.1623333333333234
-503.6849894641659	2.356333333333338
-504.15211713890614	2.563666666666662
-504.6192673755683	2.9036666666666617
-505.0864401757787	3.272666666666676
-505.5536355411745	3.6223333333333234
-506.02085347339505	4.063666666666662
-506.48809397407314	4.575
-506.9553570448415	5.230666666666657
-507.4226426873352	5.943333333333333
-507.8899509031935	6.579333333333343
-508.35728169405576	7.389666666666671
-508.8246350615461	7.899333333333343
-509.2920110073081	8.403000000000004
-509.7594095329768	8.806666666666667
-510.22683064019367	9.086999999999994
-510.6942743305851	9.046333333333338
-511.1617406057946	8.853333333333333
-511.62922946745715	8.430666666666657
-512.0967409172122	7.871333333333339
-512.5642749566924	7.140333333333328
-513.0318315875372	6.5276666666666765
-513.4994108113838	5.721666666666667
-513.9670126298691	5.111666666666666
-514.4346370446391	4.536666666666667
-514.9022840573178	3.9996666666666716
-515.3699536695513	3.453333333333333
-515.8376458829763	3.121999999999995
-516.3053606992369	2.7176666666666764
-516.7730981199612	2.4066666666666667
-517.2408581467931	2.19399999999999
-517.7086407813741	2.0313333333333383
-518.1764460253412	1.8433333333333333
-518.6442738803315	1.6469999999999951
-519.1121243479846	1.5426666666666764
-519.5799974299438	1.3533333333333333
-520.0478931278486	1.1780000000000048
-520.5158114433318	1.0239999999999903
-520.9837523780393	0.9769999999999951
-521.4517159336124	0.9986666666666618
-521.9197021116904	0.8453333333333285
-522.3877109139106	0.8856666666666569
-522.8557423419145	0.7336666666666618
-523.3237963973435	0.7160000000000097
-523.7918730818434	0.705666666666657
-524.2599723970492	0.6636666666666619
-524.7280943446024	0.655666666666657
-525.1962389261444	0.6246666666666715
-525.6644061433254	0.5966666666666667
-526.132595997774	0.53
-526.6008084911402	0.5360000000000097
-527.0690436250634	0.5610000000000097
-527.5373014011916	0.4683333333333333
-528.0055818211553	0.4653333333333285
-528.4738848866069	0.43
-528.9422105991858	0.4386666666666618
-529.4105589605377	0.38666666666666666
-529.8789299722998	0.425666666666657
-530.3473236361201	0.35766666666667635
-530.8157399536378	0.4713333333333382
-531.2841789265054	0.4469999999999951
-531.7526405563557	0.3333333333333333
-532.2211248448366	0.34933333333334304
-532.6896317935916	0.38066666666665694
-533.1581614042711	0.2139999999999903
-533.6267136785101	0.21333333333333335
-534.0952886179564	0.17766666666667638
-534.5638862242538	0.18
-535.0325064990544	0.1960000000000097
-535.5011494439935	0.16233333333332364
-535.9698150607188	0.1646666666666715
-536.4385033508763	0.24066666666665695
-536.9072143161118	0.18199999999999514
-537.3759479580754	0.2
-537.8447042784043	0.23933333333334303
-538.3134832787485	0.1860000000000097
-538.782284960754	0.21766666666667636
-539.251109326071	0.18166666666666667
-539.7199563763363	0.21
-540.1888261132026	0.17699999999999516
-540.6577185383156	0.15333333333333332
-541.1266336533254	0.2569999999999952
-541.5955714598736	0.19733333333332362
-542.0645319596101	0.20699999999999516
-542.533515154181	0.03666666666666667
-543.0025210452385	0.17833333333333334
-543.471549634422	0.1260000000000097
-543.9406009233837	0.08866666666666181
-544.4096749137716	0.03199999999999515
-544.8787716072381	0.03199999999999515
-545.3478910054247	0.034666666666671515
-545.8170331099792	0.20066666666665697
-546.2861979225542	0.15133333333333818
-546.7553854448018	0.19333333333333333
-547.2245956783636	0.15699999999999514
-547.6938286248898	0.250666666666657
-548.1630842860326	0.2560000000000097
-548.6323626634443	0.15733333333332364
-549.1016637587664	0.17
-549.5709875736515	0.15733333333332364
-550.0403341097515	0.14333333333333334
-550.5097033687211	0.1389999999999903
-550.9790953521997	0.07366666666666181
-551.4485100618417	0.06866666666666181
-551.9179474992993	0.08566666666665697
-552.3874076662273	0.10233333333332363
-552.8568905642691	0.08300000000000485
-553.326396195077	0.19300000000000486
-553.7959245603034	0.13366666666666183
-554.2654756616051	0.13833333333333334
-554.7350495006234	0.08066666666665696
-555.2046460790151	0.13733333333332362
-555.6742653984302	0.044333333333343036
-556.1439074605275	0.08433333333334303
-556.6135722669509	0.05566666666665696
-557.0832598193547	0.13033333333332847
-557.5529701193913	0.07766666666667636
-558.0227031687151	0.0960000000000097
-558.4924589689829	0.09800000000000485
-558.9622375218382	0.08566666666665697
-559.4320388289378	0.06233333333332363
-559.901862891936	0.15433333333334304
-560.3717097124897	0.06533333333332848
-560.8415792922447	0.07100000000000971
-561.3114716328574	0.01
-561.7813867359847	-0.014333333333343034
-562.2513246032833	0.003999999999990299
-562.7212852363965	0.06533333333332848
-563.1912686369857	0.08333333333333333
-563.6612748067051	0.02199999999999515
-564.1313037472138	0.06233333333332363
-564.6013554601575	0.06533333333332848
-565.0714299471971	0.07666666666666666
-565.5415272099829	-0.004666666666671517
-566.0116472501801	-0.021666666666666667
-566.4817900694323	-0.04866666666666181
-566.9519556694008	0.0660000000000097
-567.4221440517421	-0.0006666666666569654
-567.8923552181149	0.0810000000000097
-568.3625891701673	0.12333333333333334
-568.8328459095582	0.11800000000000485
-569.3031254379463	0.07766666666667636
-569.7734277569925	0.045
-570.2437528683452	0.06233333333332363
-570.7141007736628	0.08066666666665696
-571.1844714746044	0.042666666666676366
-571.6548649728329	0.09766666666667637
-572.1252812699944	0.11133333333333818
-572.5957203677541	0.06333333333333334
-573.0661822677644	0.03166666666666667
-573.5366669716926	0.09166666666666666
-574.007174481187	0.1110000000000097
-574.4777047979082	0.11133333333333818
-574.9482579235155	0.17966666666667153
-575.4188338596717	0.06233333333332363
-575.889432608027	0.04766666666667637
-576.360054170247	0.08033333333332848
-576.8306985479859	0.050333333333328484
-577.3013657429113	0.08933333333334303
-577.7720557566712	0.07800000000000486
-578.242768590931	0.049666666666671515
-578.7135042473494	0.056666666666666664
-579.1842627275896	0.0460000000000097
-579.6550440333061	0.08266666666667637
-580.1258481661622	0.07566666666665696
-580.5966751278165	0.10233333333332363
-581.0675249199302	0.1239999999999903
-581.5383975441686	0.11266666666667637
-582.0092930021859	0.04233333333332363
-582.4802112956436	0.09266666666667636
-582.9511524262044	0.034333333333343034
-583.422116395534	0.04133333333333818
-583.8931032052844	0.007666666666676368
-584.3641128571234	0.11166666666666666
-584.8351453527096	-0.0239999999999903
-585.3062006937128	0.0560000000000097
-585.7772788817853	0.0033333333333333335
-586.2483799185924	0.06466666666667152
-586.7195038057973	0.05433333333334303
-587.1906505450675	0.021333333333338183
-587.6618201380553	0.09666666666666666
-588.1330125864282	0.1739999999999903
-588.6042278918516	0.07933333333334304
-589.0754660559908	0.07199999999999515
-589.5467270805024	0.08533333333332849
-590.0180109670519	0.0939999999999903
-590.4893177173043	0.0160000000000097
-590.9606473329275	0.07433333333334304
-591.4319998155779	0.02699999999999515
-591.9033751669209	0.0910000000000097
-592.3747733886241	0.10466666666667152
-592.8461944823549	0.06966666666667151
-593.3176384497699	0.13333333333333333
-593.7891052925389	0.08800000000000485
-594.2605950123251	0.03199999999999515
-594.732107610798	0.1
-595.2036430896144	0.03233333333332363
-595.6752014504461	0.07800000000000486
-596.1467826949563	0.051000000000009704
-596.6183868248166	-0.035
-597.090013841684	0.07699999999999516
-597.5616637472281	0.005
-598.0333365431163	0.0
-598.5050322310183	0.04800000000000485
-598.9767508125929	0.07833333333333334
-599.4484922895119	0.15
-599.9202566634386	0.1710000000000097
-600.3920439360492	0.09933333333334303
-600.863854108998	0.1039999999999903
-601.3356871839613	0.028333333333333332
-601.8075431626023	0.05333333333333334
-602.2794220465906	0.025666666666656967
-602.7513238376002	0.07333333333333333
-603.2232485372857	0.08
-603.6951961473254	0.09666666666666666
-604.1671666693824	0.06633333333333818
-604.6391601051329	0.1610000000000097
-605.1111764562378	0.13166666666666665
-605.583215724367	0.08133333333333818
-606.05527791119	0.06966666666667151
-606.5273630183831	0.07033333333332849
-606.999471047605	0.0939999999999903
-607.4716020005297	0.10766666666667636
-607.943755878825	0.11433333333334303
-608.4159326841688	0.06
-608.8881324182223	0.07233333333332363
-609.3603550826554	0.11666666666666667
-609.8326006791439	0.14699999999999516
-610.3048692093575	0.20733333333332363
-610.7771606749619	0.11966666666667151
-611.2494750776308	0.09133333333333818
-611.721812419036	0.12333333333333334
-612.1941727008518	0.07100000000000971
-612.6665559247411	0.057666666666676365
-613.1389620923824	-0.024666666666671517
-613.611391205443	-0.07333333333333333
-614.0838432656016	0.030333333333328483
-614.5563182745187	-0.06966666666667151
-615.0288162338753	0.02699999999999515
-615.5013371453408	0.03233333333332363
-615.9738810105914	0.1
-616.4464478312925	0.10133333333333819
-616.9190376091203	0.08800000000000485
-617.3916503457488	0.06066666666665697
-617.864286042854	0.025333333333328482
-618.3369447021014	0.11366666666666182
-618.8096263251693	-0.034333333333343034
-619.2823309137297	0.03133333333333818
-619.7550584694607	0.075
-620.2278089940298	0.13366666666666183
-620.7005824891135	0.07333333333333333
-621.1733789563854	0.09633333333333818
-621.6461983975241	0.03133333333333818
-622.1190408141993	0.03266666666667637
-622.5919062080848	0.07166666666666667
-623.0647945808612	0.13033333333332847
-623.5377059342026	0.017666666666676368
-624.0106402697763	0.08966666666667152
-624.4835975892653	-0.023666666666661815
-624.9565778943412	-0.010666666666656966
-625.4295811866824	-0.001333333333338184
-625.9026074679693	-0.065
-626.3756567398653	0.10199999999999515
-626.8487290040574	0.08766666666667637
-627.321824262215	0.04566666666665697
-627.7949425160232	0.0560000000000097
-628.2680837671494	0.05466666666667152
-628.7412480172742	0.12133333333333818
-629.2144352680758	0.12300000000000486
-629.6876455212326	0.06133333333333819
-630.1608787784166	0.11933333333334303
-630.6341350413081	0.13566666666665697
-631.1074143115856	0.06733333333332363
-631.5807165909295	0.06833333333333333
-632.0540418810094	0.03666666666666667
-632.5273901835083	0.03800000000000485
-633.0007615001064	0.058999999999990296
-633.4741558324843	0.04
-633.9475731823117	-0.029333333333343033
-634.4210135512734	0.06533333333332848
-634.8944769410457	-0.0019999999999951493
-635.3679633533155	-0.008999999999990299
-635.8414727897504	-0.02300000000000485
-636.315005252035	0.0610000000000097
-636.7885607418502	0.12633333333333818
-637.2621392608784	0.06199999999999515
-637.7357408107915	0.09333333333333334
-638.2093653932745	0.10433333333334303
-638.6830130100077	0.0760000000000097
-639.1566836626739	0.07666666666666666
-639.6303773529492	0.058333333333333334
-640.104094082512	0.05433333333334303
-640.5778338530494	0.11233333333332363
-641.0515966662439	0.09699999999999515
-641.5253825237696	0.07166666666666667
-641.9991914273114	0.0489999999999903
-642.4730233785497	0.095
-642.9468783791716	0.06
-643.4207564308512	0.016333333333338185
-643.894657535273	0.04033333333332848
-644.3685816941202	0.07633333333333818
-644.8425289090794	0.13066666666665697
-645.3164991818247	0.13300000000000486
-645.7904925140433	0.1189999999999903
-646.2645089074176	0.13233333333332364
-646.7385483636306	0.0960000000000097
-647.2126108843712	0.1436666666666618
-647.6866964713114	0.10366666666666181
-648.1608051261403	0.04633333333333818
-648.6349368505428	-0.007666666666676368
-649.1090916462059	0.10300000000000485
-649.5832695148059	0.095
-650.0574704580297	0.043000000000004854
-650.5316944775642	0.09800000000000485
-651.0059415750944	0.1313333333333382
-651.4802117522987	0.028666666666661816
-651.9545050108684	0.10233333333332363
-652.4288213524839	0.17
-652.9031607788367	0.1436666666666618
-653.377523291605	0.0660000000000097
-653.851908892476	0.14066666666665698
-654.3263175831366	0.08333333333333333
-654.8007493652782	0.1389999999999903
-655.275204240577	0.10633333333333818
-655.7496822107221	0.12233333333332364
-656.2241832774027	0.09433333333334304
-656.6987074423081	0.07933333333334304
-657.1732547071144	0.1139999999999903
-657.647825073515	0.015333333333328482
-658.1224185431972	0.10566666666665697
-658.5970351178521	0.07633333333333818
-659.071674799156	0.07766666666667636
-659.5463375888046	-0.05433333333334303
-660.0210234884827	0.03766666666667637
-660.4957324998816	-0.028999999999990297
-660.970464624684	0.05699999999999515
-661.4452198645815	0.025333333333328482
-661.9199982212587	0.058666666666661815
-662.3947996964134	0.08166666666666667
-662.8696242917221	0.14699999999999516
-663.3444720088801	0.05800000000000485
-663.8193428495747	0.024666666666671517
-664.2942368154993	0.0739999999999903
-664.7691539083344	-0.01
-665.2440941297757	-0.0160000000000097
-665.7190574815126	0.043666666666661816
-666.1940439652361	-0.1363333333333382
-666.6690535826314	0.02199999999999515
-667.1440863353895	0.0739999999999903
-667.6191422252042	0.014333333333343034
-668.0942212537668	-0.08633333333333819
-668.5693234227599	0.051000000000009704
-669.0444487338814	0.02
-669.5195971888182	0.0360000000000097
-669.9947687892642	0.035666666666656965
-670.4699635369146	0.03800000000000485
-670.9451814334525	0.007333333333323632
-671.4204224805712	0.07433333333334304
-671.8956866799642	0.07366666666666181
-672.3709740333295	0.13300000000000486
-672.8462845423476	0.095
-673.3216182087161	0.10533333333332848
-673.7969750341267	0.13833333333333334
-674.2723550202793	0.04533333333332848
-674.7477581688544	0.09566666666665696
-675.2231844815498	0.034333333333343034
-675.6986339600613	0.014666666666671517
-676.1741066060845	0.04866666666666181
-676.6496024213021	-0.00800000000000485
-677.1251214074143	0.0989999999999903
-677.6006635661165	0.11433333333334303
-678.0762288991046	0.03800000000000485
-678.5518174080635	0.09433333333334304
-679.0274290946908	0.23066666666665697
-679.5030639606846	0.075
-679.9787220077426	0.03733333333332363
-680.4544032375497	0.14066666666665698
-680.9301076518038	0.05
-681.4058352522029	-0.0460000000000097
-681.8815860404445	0.06833333333333333
-682.3573600182182	0.026333333333338184
-682.8331571872193	0.0389999999999903
-683.308977549148	-0.006666666666666667
-683.7848211057002	0.041666666666666664
-684.2606878585669	0.09933333333334303
-684.7365778094462	0.11633333333333819
-685.2124909600358	0.06800000000000485
-685.688427312038	0.04699999999999515
-686.1643868671355	0.07766666666667636
-686.640369627037	0.11233333333332363
-687.1163755934316	0.11800000000000485
-687.592404768028	0.006333333333338184
-688.0684571525112	-0.015333333333328482
-688.5445327485811	-0.056666666666666664
-689.0206315579399	0.06966666666667151
-689.4967535822876	-0.028333333333333332
-689.9728988233136	0.03800000000000485
-690.4490672827199	0.03300000000000485
-690.9252589622043	0.09566666666665696
-691.4014738634692	0.14966666666667153
-691.8777119882124	0.04233333333332363
-692.3539733381273	0.16333333333333333
-692.8302579149183	0.12800000000000486
-693.3065657202812	0.15066666666665696
-693.782896755916	0.13199999999999515
-694.2592510235271	0.13266666666667637
-694.7356285248057	0.022333333333323633
-695.2120292614607	-0.013333333333333334
-695.6884532351831	0.08366666666666181
-696.1649004476822	0.11933333333334303
-696.6413709006488	0.13033333333332847
-697.1178645957918	0.05333333333333334
-697.5943815348027	0.0789999999999903
-698.0709217193943	0.05266666666667637
-698.547485151258	0.09766666666667637
-699.0240718320983	0.015666666666656965
-699.5006817636153	0.0439999999999903
-699.977314947513	0.013000000000004851
-700.4539713854917	0.016333333333338185
-700.9306510792559	-0.021666666666666667
-701.4073540305009	0.02733333333332363
-701.8840802409356	-0.08333333333333333
-702.3608297122558	-0.17066666666665697
-702.8376024461702	-0.03800000000000485
-703.3143984443786	-0.008999999999990299
-703.7912177085856	-0.016666666666666666
-704.2680602404868	-0.0060000000000097016
-704.7449260417994	-0.002666666666676368
-705.221815114215	0.006666666666666667
-705.6987274594424	0.001333333333338184
-706.1756630791813	0.03866666666666182
-706.6526219751405	0.012333333333323633
-707.1296041490159	0.010333333333328483
-707.6066096025246	0.049333333333343034
-708.0836383373583	0.024666666666671517
-708.5606903552296	-0.0010000000000097012
-709.0377656578345	0.028333333333333332
-709.5148642468903	0.036333333333338186
-709.9919861240926	-0.0460000000000097
-710.4691312911503	0.01699999999999515
-710.9462997497633	0.09566666666665696
-711.4234915016445	0.12333333333333334
-711.9007065484986	0.015
-712.3779448920254	0.10300000000000485
-712.855206533938	0.11666666666666667
-713.3324914759364	0.11199999999999515
-713.8097997197294	-0.07866666666666182
-714.2871312670255	0.0006666666666569654
-714.7644861195292	0.011666666666666667
-715.2418642789494	0.025333333333328482
-715.71926574699	0.06566666666665696
-716.19669052536	0.03333333333333333
-716.6741386157682	0.06233333333332363
-717.1516100199144	0.02266666666667637
-717.6291047395205	0.09433333333334304
-718.1066227762776	0.035666666666656965
-718.5841641319076	-0.05966666666667152
-719.0617288081106	0.050333333333328484
-719.5393168065996	0.058333333333333334
-720.0169281290788	0.058999999999990296
-720.4945627772613	-0.04766666666667637
-720.9722207528516	-0.0610000000000097
-721.4499020575627	-0.013000000000004851
-721.9276066930988	-0.06866666666666181
-722.4053346611774	-0.11199999999999515
-722.8830859634986	-0.015666666666656965
-723.3608606017754	-0.005
-723.8386585777207	0.095
-724.3164798930433	0.04133333333333818
-724.7943245494477	0.10966666666667152
-725.272192548651	0.1853333333333285
-725.7500838923621	0.12033333333332848
-726.2279985822896	0.058333333333333334
-726.7059366201466	0.07933333333334304
-727.1838980076462	0.07300000000000485
-727.6618827464928	-0.006666666666666667
-728.1398908384035	-0.0739999999999903
-728.6179222850873	0.028999999999990297
-729.095977088257	-0.043000000000004854
-729.5740552496214	-0.017666666666676368
-730.052156770898	0.049333333333343034
-730.5302816537911	0.08633333333333819
-731.0084299000223	0.1160000000000097
-731.4866015113004	0.09333333333333334
-731.964796489334	0.1486666666666618
-732.4430148358406	0.09366666666666182
-732.9212565525332	0.06533333333332848
-733.3995216411205	-0.09
-733.8778101033242	-0.0439999999999903
-734.3561219408443	0.011333333333338184
-734.8344571554113	-0.01199999999999515
-735.3128157487251	0.030666666666656964
-735.7911977225033	-0.0660000000000097
-736.2696030784673	0.04866666666666181
-736.7480318183216	0.08733333333332363
-737.2264839437879	0.07566666666665696
-737.7049594565793	0.1739999999999903
-738.1834583584089	0.07966666666667152
-738.6619806509894	0.08633333333333819
-739.1405263360386	0.08166666666666667
-739.6190954152737	0.05
-740.0976878904078	0.11433333333334303
-740.5763037631581	0.07466666666667152
-741.054943035242	0.057666666666676365
-741.5336057083684	0.04566666666665697
-742.0122917842632	0.015
-742.4910012646309	-0.028999999999990297
-742.9697341512017	-0.04233333333332363
-743.44849044568	0.00800000000000485
-743.927270149792	0.06566666666665696
-744.4060732652506	0.029666666666671518
-744.8848997937732	0.09233333333332364
-745.3637497370773	0.08966666666667152
-745.8426230968801	0.16066666666665697
-746.3215198748991	0.11733333333332363
-746.8004400728515	0.1436666666666618
-747.2793836924593	-0.005666666666656966
-747.7583507354353	0.03966666666667152
-748.2373412035014	0.04733333333332363
-748.716355098379	0.017333333333323632
-749.1953924217772	0.07966666666667152
-749.6744531754217	0.11366666666666182
-750.1535373610302	0.09833333333333333
-750.6326449803285	0.023333333333333334
-751.111776035021	0.0360000000000097
-751.5909305268425	-0.024666666666671517
-752.0701084575018	-0.026000000000009703
-752.5493098287246	0.035333333333328484
-753.0285346422287	0.02699999999999515
-753.5077828997398	-0.011666666666666667
-753.987054602967	0.02266666666667637
-754.4663497536402	0.029666666666671518
-754.9456683534771	0.035666666666656965
-755.4250104042037	0.0910000000000097
-755.9043759075286	0.07433333333334304
-756.3837648651867	-0.023333333333333334
-756.8631772788864	0.01199999999999515
-757.3426131503628	0.06300000000000484
-757.8220724813286	0.07533333333332848
-758.3015552735102	0.052333333333323635
-758.7810615286247	0.06233333333332363
-759.2605912483939	0.11766666666667637
-759.7401444345481	0.06133333333333819
-760.2197210888049	0.02300000000000485
-760.6993212128901	0.1436666666666618
-761.1789448085212	0.09033333333332848
-761.6585918774243	0.034666666666671515
-762.1382624213211	0.009666666666671517
-762.6179564419375	-0.043333333333333335
-763.0976739409954	0.043666666666661816
-763.5774149202207	0.002333333333323632
-764.0571793813351	0.006666666666666667
-764.5369673260649	0.02666666666666667
-765.0167787561315	0.06266666666667636
-765.4966136732611	0.017666666666676368
-765.9764720791754	0.059333333333343036
-766.4563539756049	0.06
-766.9362593642668	0.0610000000000097
-767.4161882468959	0.08133333333333818
-767.8961406252051	0.115
-768.3761165009338	0.08800000000000485
-768.856115875799	0.09
-769.336138751527	0.008666666666661816
-769.8161851298437	0.01
-770.2962550124796	0.02800000000000485
-770.7763484011564	0.07366666666666181
-771.2564652976043	0.012333333333323633
-771.7366057035454	-0.07333333333333333
-772.2167696207097	0.005
-772.6969570508234	0.011000000000009702
-773.1771679956125	0.011666666666666667
-773.6574024568075	0.004333333333343035
-774.1376604361301	0.008999999999990299
-774.6179419353149	0.050333333333328484
-775.0982469560837	0.13466666666667151
-775.578575500167	0.051000000000009704
-776.0589275692992	0.05466666666667152
-776.5393031651936	0.17033333333332848
-777.0197022895935	0.023666666666661815
-777.5001249442207	-0.02666666666666667
-777.9805711308056	0.04466666666667152
-778.4610408510741	0.043333333333333335
-778.941534106761	0.035333333333328484
-779.422050899588	0.025666666666656967
-779.9025912312899	0.051333333333338185
-780.383155103597	0.02666666666666667
-780.8637425182397	-0.04233333333332363
-781.3443534769441	-0.021000000000009702
-781.8249879814406	-0.013999999999990298
-782.3056460334637	-0.06233333333332363
-782.7863276347398	0.014333333333343034
-783.2670327870034	0.0
-783.7477614919806	-0.03733333333332363
-784.2285137514104	0.009333333333343035
-784.7092895670147	-0.04733333333332363
-785.190088940528	0.05266666666667637
-785.6709118736851	0.029333333333343033
-786.1517583682121	0.009333333333343035
-786.632628425848	0.036333333333338186
-787.1135220483189	0.06699999999999515
-787.5944392373596	0.059333333333343036
-788.0753799947003	0.08466666666667151
-788.5563443220758	0.12800000000000486
-789.0373322212208	0.051333333333338185
-789.5183436938614	-0.014666666666671517
-789.9993787417368	0.10100000000000971
-790.4804373665771	-0.03966666666667152
-790.9615195701215	0.050666666666656965
-791.4426253540961	0.11800000000000485
-791.9237547202398	0.07300000000000485
-792.4049076702788	0.08866666666666181
-792.8860842059564	0.028333333333333332
-793.3672843290032	0.05466666666667152
-793.8485080411537	0.019333333333343035
-794.3297553441382	0.1089999999999903
-794.8110262397004	0.06066666666665697
-795.2923207295705	0.03866666666666182
-795.7736388154832	0.0810000000000097
-796.2549804991734	0.07866666666666182
-796.7363457823756	0.05266666666667637
-797.217734666829	0.09033333333332848
-797.6991471542682	0.13300000000000486
-798.180583246428	0.10633333333333818
-798.6620429450433	0.11733333333332363
-799.1435262518528	0.11266666666667637
-799.6250331685959	0.13166666666666665
-800.1065636969985	0.17033333333332848
-800.5881178388125	0.13666666666666666
-801.06969559576	0.11199999999999515
-801.5512969695884	0.11833333333333333
-802.0329219620326	0.05699999999999515
-802.5145705748272	0.14833333333333334
-802.9962428097114	0.09733333333332363
-803.4779386684241	0.03933333333334303
-803.9596581527046	0.11433333333334303
-804.4414012642874	0.11866666666666181
-804.9231680049115	0.07633333333333818
-805.4049583763206	0.09666666666666666
-805.8867723802448	0.10233333333332363
-806.368610018432	0.02800000000000485
-806.8504712926126	0.03933333333334303
-807.3323562045299	0.07433333333334304
-807.8142647559273	0.04666666666666667
-808.2961969485352	0.015333333333328482
-808.7781527841014	0.06933333333334303
-809.2601322643649	0.0889999999999903
-809.7421353910604	0.023333333333333334
-810.2241621659313	0.10233333333332363
-810.7062125907211	0.02300000000000485
-811.1882866671644	-0.03
-811.6703843970047	0.05266666666667637
-812.1525057819853	0.019666666666671516
-812.634650823841	0.033666666666661814
-813.1168195243196	0.0689999999999903
-813.5990118851643	0.1386666666666618
-814.0812279081055	0.041666666666666664
-814.5634675948954	0.02033333333332848
-815.0457309472688	-0.016333333333338185
-815.5280179669776	0.03133333333333818
-816.0103286557522	-0.06933333333334303
-816.4926630153448	-0.04666666666666667
-816.9750210474899	-0.035666666666656965
-817.4574027539397	-0.006999999999995149
-817.9398081364247	-0.0189999999999903
-818.4222371967012	0.06166666666666667
-818.9046899365038	0.0189999999999903
-819.3871663575804	0.125
-819.8696664616701	-0.06166666666666667
