-194.34305441739858	-0.06666666666666667
-194.79536075947718	0.185
-195.24768859823178	0.05300000000000485
-195.70003793519538	0.16366666666666183
-196.15240877190544	0.09033333333332848
-196.60480110989712	0.09199999999999516
-197.0572149506927	0.0460000000000097
-197.50965029583173	0.01
-197.96210714684943	0.0160000000000097
-198.41458550527886	0.014666666666671517
-198.86708537264877	-0.003666666666661816
-199.31960675049436	0.03333333333333333
-199.77214964035304	-0.02
-200.22471404376003	-0.08433333333334303
-200.6772999622419	-0.04666666666666667
-201.12990739733607	-0.04633333333333818
-201.58253635057773	0.0033333333333333335
-202.03518682350864	0.0310000000000097
-202.48785881765102	0.03199999999999515
-202.9405523345444	0.0739999999999903
-203.39326737572623	0.026000000000009703
-203.8460039427339	0.08366666666666181
-204.29876203709608	0.075
-204.75154166035023	0.025333333333328482
-205.20434281403158	0.002666666666676368
-205.657165499684	-0.02666666666666667
-206.1100097188319	-0.0060000000000097016
-206.5628754730148	-0.07266666666667637
-207.01576276377017	-0.02
-207.4686715926397	0.0539999999999903
-207.92160196115	0.045
-208.37455387084057	-0.028333333333333332
-208.82752732325102	0.0789999999999903
-209.2805223199209	0.085
-209.73353886238107	0.0360000000000097
-210.186576952169	0.0339999999999903
-210.6396365908242	-0.05733333333332363
-211.09271777988843	-0.005333333333328483
-211.5458205208926	0.11366666666666182
-211.99894481537407	0.02033333333332848
-212.45209066487462	-0.026333333333338184
-212.90525807093158	-0.028666666666661816
-213.35844703508894	0.028999999999990297
-213.81165755887318	0.015
-214.26488964382827	-0.04
-214.7181432914937	0.0003333333333284827
-215.1714185034113	0.028666666666661816
-215.62471528111405	0.08333333333333333
-216.07803362614374	-0.015
-216.53137354003772	0.08300000000000485
-216.9847350243421	0.09433333333334304
-217.43811808058777	0.09433333333334304
-217.8915227103186	0.10466666666667152
-218.3449489150742	0.034666666666671515
-218.79839669639847	0.07866666666666182
-219.2518660558223	0.03333333333333333
-219.7053569948917	0.0610000000000097
-220.15886951514634	0.09033333333332848
-220.61240361813222	0.011333333333338184
-221.06595930538026	-0.028666666666661816
-221.51953657843652	-0.017333333333323632
-221.9731354388406	-0.012666666666676369
-222.4267558881385	0.008333333333333333
-222.88039792786336	-0.041666666666666664
-223.3340615595612	0.07933333333334304
-223.78774678477382	-0.03866666666666182
-224.24145360504505	-0.0003333333333284827
-224.69518202191014	-0.035
-225.14893203691736	-0.024333333333343036
-225.6027036516041	-0.013000000000004851
-226.05649686752074	0.017333333333323632
-226.51031168620037	0.007666666666676368
-226.96414810918904	0.013000000000004851
-227.41800613802852	0.056666666666666664
-227.87188577426917	-0.016666666666666666
-228.3257870194441	0.09300000000000486
-228.77970987510153	0.001333333333338184
-229.23365434278105	0.02699999999999515
-229.68762042403517	0.08466666666667151
-230.14160812039702	0.02699999999999515
-230.59561743341484	0.0019999999999951493
-231.04964836463031	0.029333333333343033
-231.50370091559606	-0.0539999999999903
-231.9577750878451	-0.01
-232.41187088292793	0.034333333333343034
-232.86598830238617	0.05533333333332848
-233.32012734776816	-0.06466666666667152
-233.7742880206199	-0.0660000000000097
-234.22847032247884	-0.005666666666656966
-234.68267425489535	-0.001333333333338184
-235.13689981941337	-0.08600000000000971
-235.59114701758327	0.023666666666661815
-236.04541585094248	-0.06833333333333333
-236.49970632103924	-0.023333333333333334
-236.95401842942178	0.04233333333332363
-237.40835217763833	0.035333333333328484
-237.86270756722848	0.008999999999990299
-238.31708459974044	0.11266666666667637
-238.7714832767225	0.01699999999999515
-239.22590359972503	0.023333333333333334
-239.68034557028543	0.07933333333334304
-240.13480918995845	-0.059333333333343036
-240.58929446028583	0.018666666666661814
-241.04380138282232	-0.005666666666656966
-241.49832995910532	-0.0060000000000097016
-241.9528801906874	-0.043333333333333335
-242.4074520791168	-0.058666666666661815
-242.86204562594392	-0.002666666666676368
-243.31666083271054	0.02199999999999515
-243.771297700967	-0.09133333333333818
-244.2259562322616	-0.09133333333333818
-244.6806364281469	-0.1596666666666715
-245.13533829016242	0.0006666666666569654
-245.59006181986516	-0.016666666666666666
-246.04480701879896	-0.0689999999999903
-246.4995738885186	0.01
-246.95436243056577	-0.05266666666667637
-247.40917264649312	-0.11300000000000485
-247.8640045378488	-0.008666666666661816
-248.31885810618982	-0.028666666666661816
-248.7737333530535	-0.04066666666665696
-249.22863027999898	0.03333333333333333
-249.68354888857013	-0.08066666666665696
-250.13848918032602	0.006333333333338184
-250.59345115680628	0.05333333333333334
-251.04843481956775	0.10300000000000485
-251.5034401701587	0.07666666666666666
-251.9584672101339	0.003666666666661816
-252.41351594103722	0.09733333333332363
-252.86858636442344	0.006333333333338184
-253.3236784818451	0.04033333333332848
-253.77879229485046	0.02033333333332848
-254.23392780499861	0.04766666666667637
-254.6890850138291	0.08133333333333818
-255.14426392290102	0.05199999999999515
-255.59946453376477	-0.08133333333333818
-256.0546868479773	-0.015666666666656965
-256.50993086708246	0.0960000000000097
-256.96519659263504	0.08733333333332363
-257.42048402618974	0.075
-257.8757931693035	0.0310000000000097
-258.3311240235181	0.052333333333323635
-258.7864765903947	0.014666666666671517
-259.2418508714817	-0.03699999999999515
-259.6972468683423	0.0019999999999951493
-260.15266458251625	-0.05466666666667152
-260.6081040155625	-0.04533333333332848
-261.0635651690359	0.049333333333343034
-261.51904804449543	0.04033333333332848
-261.97455264348514	0.06166666666666667
-262.43007896756177	0.06633333333333818
-262.88562701828454	0.11
-263.34119679720595	0.028999999999990297
-263.7967883058765	0.08699999999999515
-264.25240154585515	0.08199999999999515
-264.70803651869454	0.15733333333332364
-265.16369322595375	0.11
-265.619371669181	0.0410000000000097
-266.0750718499376	0.1539999999999903
-266.53079376977394	0.11733333333332363
-266.98653743025557	0.04733333333332363
-267.4423028329264	0.1460000000000097
-267.8980899793455	0.06199999999999515
-268.35389887107203	0.1313333333333382
-268.809729509665	0.12033333333332848
-269.26558189667264	0.050666666666656965
-269.7214560336541	0.16966666666667152
-270.1773519221706	0.17066666666665697
-270.6332695637768	0.1360000000000097
-271.0892089600255	0.13800000000000484
-271.5451701124777	0.10366666666666181
-272.0011530226883	0.1889999999999903
-272.45715769222284	0.16166666666666665
-272.91318412262734	0.16300000000000486
-273.3692323154632	0.10633333333333818
-273.8253022722893	0.2683333333333333
-274.28139399466926	0.31766666666667637
-274.73750748415335	0.24833333333333332
-275.19364274230077	0.35933333333334305
-275.6497997706705	0.24666666666666667
-276.10597857082377	0.2813333333333382
-276.56217914432193	0.3303333333333285
-277.0184014927153	0.33
-277.47464561756743	0.3363333333333382
-277.9309115204373	0.3486666666666618
-278.38719920288827	0.32466666666667154
-278.84350866647304	0.3736666666666618
-279.2998399127528	0.415
-279.75619294328885	0.3303333333333285
-280.21256775964673	0.33866666666666184
-280.6689643633747	0.36933333333334306
-281.12538275604055	0.42199999999999516
-281.5818229392033	0.37666666666666665
-282.03828491442636	0.41
-282.4947686832645	0.42933333333334306
-282.951274247279	0.4223333333333236
-283.4078016080354	0.38866666666666183
-283.8643507670972	0.46
-284.32092172601693	0.51
-284.77751448636013	0.505
-285.23412904968814	0.55
-285.69076541756647	0.48933333333334306
-286.1474235915499	0.4723333333333236
-286.6041035732062	0.625
-287.0608053640923	0.47066666666665696
-287.5175289657802	0.485666666666657
-287.9742743798204	0.42833333333333334
-288.4310416077828	0.4096666666666715
-288.8878306512286	0.5539999999999903
-289.34464151172347	0.48766666666667635
-289.80147419082215	0.5076666666666764
-290.2583286900945	0.6386666666666618
-290.715205011104	0.534333333333343
-291.17210315541405	0.5039999999999903
-291.62902312458584	0.6039999999999903
-292.0859649201829	0.6763333333333382
-292.54292854377076	0.554333333333343
-292.99991399691714	0.6230000000000049
-293.45692128117906	0.5380000000000048
-293.91395039812414	0.6760000000000097
-294.3710013493181	0.7196666666666716
-294.8280741363286	0.7216666666666667
-295.2851687607126	0.6889999999999903
-295.74228522404	0.6586666666666618
-296.1994235278743	0.7519999999999951
-296.65658367378524	0.7636666666666618
-297.1137656633321	0.7336666666666618
-297.57096949808255	0.7433333333333333
-298.02819517960216	0.819333333333343
-298.48544270945877	0.7010000000000097
-298.9427120892222	0.71
-299.40000332044724	0.715
-299.8573164047082	0.5983333333333334
-300.3146513435705	0.6639999999999903
-300.7720081386043	0.6306666666666569
-301.22938679136854	0.6123333333333236
-301.68678730343316	0.5323333333333237
-302.1442096763681	0.6163333333333382
-302.60165391174115	0.5613333333333382
-303.0591200111157	0.589333333333343
-303.51660797605945	0.5730000000000048
-303.97411780814025	0.5586666666666619
-304.43164950893447	0.59
-304.88920307999683	0.5976666666666763
-305.34677852290173	0.5546666666666715
-305.80437583921673	0.5530000000000048
-306.2619950305163	0.5596666666666715
-306.71963609835933	0.5403333333333284
-307.1772990443202	0.5019999999999951
-307.63498386996446	0.44766666666667637
-308.0926905768685	0.5233333333333333
-308.5504191665915	0.45666666666666667
-309.00816964070987	0.42633333333333817
-309.4659420007891	0.4533333333333333
-309.92373624840354	0.40566666666665696
-310.3815523851166	0.34566666666665696
-310.8393904125025	0.4469999999999951
-311.2972503321312	0.43199999999999517
-311.7551321455748	0.5136666666666618
-312.21303585439887	0.3836666666666618
-312.6709614601733	0.42266666666667635
-313.12890896447465	0.46
-313.58687836887265	0.4646666666666715
-314.0448696749352	0.3889999999999903
-314.50288288423224	0.465
-314.9609179983401	0.4696666666666715
-315.41897501882875	0.43033333333332846
-315.8770539472681	0.41766666666667634
-316.3351547852281	0.43733333333332364
-316.79327753428515	0.43699999999999517
-317.2514221960114	0.39800000000000485
-317.70958877197455	0.4626666666666764
-318.16777726374886	0.45300000000000484
-318.62598767290865	0.5093333333333431
-319.08422000102377	0.47766666666667634
-319.54247424967286	0.3860000000000097
-320.00075042041937	0.3869999999999951
-320.45904851484397	0.3960000000000097
-320.9173685345167	0.3960000000000097
-321.3757104810161	0.3423333333333236
-321.8340743559077	0.3736666666666618
-322.2924601607681	0.3983333333333333
-322.7508678971735	0.360666666666657
-323.20929756669835	0.35199999999999515
-323.6677491709125	0.37966666666667154
-324.1262227113924	0.3889999999999903
-324.58471818971447	0.44033333333332847
-325.04323560745513	0.40433333333334304
-325.50177496617994	0.3939999999999903
-325.96033626746976	0.3546666666666715
-326.4189195129009	0.42733333333332363
-326.87752470405206	0.29199999999999515
-327.33615184248663	0.3213333333333382
-327.7948009297897	0.25333333333333335
-328.25347196753336	0.370666666666657
-328.7121649573005	0.3426666666666764
-329.17087990065465	0.44033333333332847
-329.6296167991787	0.41933333333334305
-330.0883756544512	0.3730000000000048
-330.5471564680486	0.30833333333333335
-331.0059592415409	0.3516666666666667
-331.4647839765066	0.3710000000000097
-331.9236306745287	0.3516666666666667
-332.3824993371814	0.3546666666666715
-332.841389966039	0.43733333333332364
-333.30030256268014	0.36333333333333334
-333.75923712868115	0.38266666666667637
-334.2181936656272	0.42699999999999516
-334.67717217508607	0.4053333333333285
-335.13617265863843	0.29066666666665697
-335.59519511786516	0.4036666666666618
-336.05423955434696	0.3426666666666764
-336.5133059696538	0.444333333333343
-336.9723943653707	0.3326666666666764
-337.431504743072	0.40933333333334304
-337.89063710434493	0.31199999999999517
-338.3497914507573	0.32300000000000484
-338.80896778389416	0.21933333333334304
-339.2681661053341	0.2489999999999903
-339.72738641665796	0.3630000000000049
-340.18662871944645	0.39699999999999513
-340.6458930152738	0.30833333333333335
-341.10517930572087	0.29133333333333816
-341.56448759237264	0.36199999999999516
-342.0238178768078	0.2733333333333333
-342.48317016060497	0.34433333333334304
-342.9425444453427	0.28633333333333816
-343.4019407326039	0.24666666666666667
-343.86135902397376	0.2816666666666667
-344.3207993210264	0.335
-344.7802616253449	0.3383333333333333
-345.23974593850994	0.38866666666666183
-345.69925226211103	0.28633333333333816
-346.15878059771586	0.335
-346.6183309469139	0.36333333333333334
-347.0779033112881	0.255
-347.5374976924213	0.3639999999999903
-347.99711409189007	0.27
-348.4567525112773	0.38300000000000484
-348.91641295217016	0.33199999999999513
-349.37609541615393	0.36766666666667636
-349.8357999048005	0.365
-350.2955264196995	0.3660000000000097
-350.7552749624338	0.3233333333333333
-351.21504553458846	0.27300000000000485
-351.6748381377421	0.30966666666667153
-352.13465277347984	0.2823333333333236
-352.59448944338675	0.27300000000000485
-353.05434814905016	0.33199999999999513
-353.51422889204645	0.27666666666666667
-353.9741316739629	0.3466666666666667
-354.43405649638464	0.2739999999999903
-354.8940033608989	0.29199999999999515
-355.35397226908435	0.3113333333333382
-355.8139632225282	0.255
-356.2739762228155	0.23166666666666666
-356.73401127153585	0.20233333333332362
-357.19406837026554	0.2653333333333285
-357.65414752059405	0.17033333333332848
-358.1142487241087	0.2796666666666715
-358.5743719823988	0.25466666666667154
-359.0345172970388	0.2239999999999903
-359.49468466962236	0.14199999999999516
-359.95487410173456	0.22833333333333333
-360.4150855949649	0.235
-360.875319150892	0.23966666666667152
-361.3355747711074	0.2060000000000097
-361.79585245719625	0.31733333333332364
-362.25615221074577	0.3376666666666764
-362.7164740333498	0.259333333333343
-363.17681792658476	0.3363333333333382
-363.63718389204223	0.26733333333332365
-364.09757193130946	0.27933333333334304
-364.5579820459781	0.29199999999999515
-365.01841423763113	0.3036666666666618
-365.47886850785574	0.32166666666666666
-365.93934485824354	0.2989999999999903
-366.399843290384	0.2569999999999952
-366.8603638058601	0.3446666666666715
-367.32090640626336	0.32233333333332365
-367.78147109318115	0.22433333333334304
-368.24205786820716	0.16233333333332364
-368.70266673292434	0.17933333333334303
-369.16329768892433	0.22133333333333818
-369.6239507377966	0.2436666666666618
-370.08462588113264	0.25266666666667636
-370.54532312051765	0.300666666666657
-371.00604245754323	0.13333333333333333
-371.46678389379883	0.21300000000000485
-371.92754743088034	0.23666666666666666
-372.38833307036856	0.19199999999999515
-372.84914081385944	0.1810000000000097
-373.3099706629424	0.29933333333334305
-373.7708226192113	0.20666666666666667
-374.23169668424896	0.24333333333333335
-374.69259285965353	0.235
-375.15351114701235	0.23
-375.6144515479234	0.29199999999999515
-376.07541406396757	0.23066666666665697
-376.53639869674294	0.18633333333333818
-376.9974054478411	0.3089999999999903
-377.45843431885584	0.2410000000000097
-377.91948531137444	0.17199999999999516
-378.38055842698844	0.22
-378.84165366729604	0.250666666666657
-379.30277103388886	0.27233333333332366
-379.7639105283541	0.3260000000000097
-380.22507215228774	0.23466666666667152
-380.68625590728135	0.19800000000000484
-381.1474617949353	0.2536666666666618
-381.6086898168324	0.2196666666666715
-382.06993997457306	0.2139999999999903
-382.5312122697467	0.26699999999999513
-382.9925067039492	0.2726666666666764
-383.45382327877866	0.31833333333333336
-383.9151619958224	0.2746666666666715
-384.3765228566743	0.3046666666666715
-384.83790586293225	0.22766666666667637
-385.2993110161967	0.2760000000000097
-385.76073831804837	0.18133333333333818
-386.22218777009186	0.16366666666666183
-386.68365937391667	0.254333333333343
-387.14515313112736	0.1589999999999903
-387.60666904330685	0.22866666666666183
-388.0682071120576	0.295
-388.52976733897566	0.24733333333332364
-388.99134972565685	0.18333333333333332
-389.4529542736928	0.2153333333333285
-389.9145809846795	0.25566666666665694
-390.3762298602194	0.2569999999999952
-390.83790090190627	0.21333333333333335
-391.2995941113338	0.17300000000000484
-391.7613094900981	0.19
-392.22304703979927	0.07466666666667152
-392.68480676203774	0.13533333333332848
-393.1465886584029	0.1313333333333382
-393.608392730495	0.15133333333333818
-394.07021897991	0.1313333333333382
-394.53206740825254	0.20666666666666667
-394.99393801711204	0.2110000000000097
-395.4558308080888	0.17766666666667638
-395.91774578278097	0.20333333333333334
-396.37968294279096	0.18833333333333332
-396.84164228971036	0.2560000000000097
-397.3036238251394	0.18
-397.7656275506785	0.18633333333333818
-398.22765346793005	0.18166666666666667
-398.68970157848565	0.18833333333333332
-399.15177188394773	0.27
-399.61386438591444	0.25300000000000483
-400.07597908599257	0.16766666666667637
-400.53811598576937	0.17033333333332848
-401.0002750868516	0.2783333333333333
-401.4624563908375	0.19966666666667152
-401.92465989933146	0.16066666666665697
-402.38688561392746	0.1646666666666715
-402.8491335362279	0.22066666666665696
-403.3114036678331	0.12
-403.7736960103475	0.2310000000000097
-404.2360105653672	0.250666666666657
-404.69834733449255	0.225
-405.160706319328	0.22333333333333333
-405.6230875214739	0.3
-406.08549094253493	0.22933333333334305
-406.54791658410477	0.2513333333333382
-407.01036444779027	0.2760000000000097
-407.47283453519384	0.1413333333333382
-407.93532684791796	0.3110000000000097
-408.3978413875608	0.2710000000000097
-408.86037815572683	0.25466666666667154
-409.3229371540164	0.2886666666666618
-409.78551838404076	0.2846666666666715
-410.2481218473935	0.3110000000000097
-410.7107475456772	0.2646666666666715
-411.1733954805007	0.2966666666666667
-411.63606565346873	0.27800000000000485
-412.0987580661772	0.30833333333333335
-412.5614727202328	0.15800000000000486
-413.02420961724033	0.1639999999999903
-413.4869687588065	0.23199999999999515
-413.9497501465272	0.1889999999999903
-414.41255378201356	0.18433333333334304
-414.87537966686597	0.22566666666665697
-415.3382278026954	0.255
-415.801098191098	0.2953333333333285
-416.2639908336825	0.28
-416.7269057320537	0.28066666666665696
-417.1898428878204	0.13166666666666665
-417.6528023025808	0.26300000000000484
-418.1157839779439	0.18866666666666182
-418.57878791551644	0.13566666666665697
-419.0418141169052	0.19066666666665696
-419.5048625837104	0.254333333333343
-419.9679333175411	0.20166666666666666
-420.4310263200041	0.22199999999999515
-420.8941415927104	0.24833333333333332
-421.3572791372561	0.2653333333333285
-421.82043895525436	0.16800000000000484
-422.28362104831206	0.25166666666666665
-422.74682541803804	0.21333333333333335
-423.21005206603274	0.12800000000000486
-423.67330099390716	0.29933333333334305
-424.13657220326814	0.37766666666667636
-424.59986569572897	0.3046666666666715
-425.0631814728878	0.23166666666666666
-425.5265195363578	0.23666666666666666
-425.9898798877459	0.2010000000000097
-426.45326252866096	0.26233333333332365
-426.9166674607163	0.23666666666666666
-427.3800946855101	0.37966666666667154
-427.84354420465553	0.24300000000000485
-428.3070160197638	0.2646666666666715
-428.770510132446	0.2833333333333333
-429.2340265443025	0.14633333333333817
-429.69756525694646	0.21866666666666182
-430.16112627199124	0.2903333333333285
-430.62470959104576	0.19666666666666666
-431.08831521571466	0.23666666666666666
-431.5519431476091	0.23833333333333334
-432.0155933883424	0.2603333333333285
-432.4792659395277	0.14433333333334303
-432.9429608027654	0.24466666666667153
-433.4066779796732	0.20433333333334303
-433.87041747185987	0.1539999999999903
-434.334179280941	0.13833333333333334
-434.7979634085168	0.13699999999999515
-435.26176985620714	0.16199999999999515
-435.72559862562093	0.07133333333333819
-436.1894497183737	0.10199999999999515
-436.6533231360678	0.12066666666665697
-437.1172188803209	0.14833333333333334
-437.5811369527441	0.13733333333332362
-438.0450773549529	0.13800000000000484
-438.5090400885541	0.19033333333332847
-438.973025155161	0.1963333333333382
-439.43703255638684	0.1963333333333382
-439.90106229384924	0.13966666666667152
-440.36511436915504	0.21199999999999514
-440.82918878391536	0.13233333333332364
-441.29328553975	0.19833333333333333
-441.7574046382722	0.15699999999999514
-442.2215460810888	0.14800000000000485
-442.68570986981524	0.04699999999999515
-443.1498960060691	0.2873333333333236
-443.614104491466	0.17
-444.07833532761254	0.14033333333332848
-444.5425885161265	0.17433333333334303
-445.00686405862325	0.19966666666667152
-445.4711619567226	0.13366666666666183
-445.935482212027	0.09833333333333333
-446.3998248261584	0.19666666666666666
-446.8641898007302	0.22066666666665696
-447.3285771373643	0.18866666666666182
-447.79298683766524	0.1596666666666715
-448.25741890325503	0.19933333333334302
-448.72187333574703	0.20033333333332848
-449.18635013675885	0.14966666666667153
-449.65084930790806	0.11300000000000485
-450.11537085080585	0.10933333333334304
-450.5799147670698	0.0460000000000097
-451.04448105831756	0.06300000000000484
-451.5090697261711	0.15300000000000485
-451.97368077223723	0.11533333333332849
-452.4383141981357	0.009333333333343035
-452.90297000548634	0.06966666666667151
-453.36764819590894	0.09833333333333333
-453.8323487710146	0.1389999999999903
-454.29707173242315	0.20333333333333334
-454.7618170817522	0.15600000000000971
-455.22658482062377	0.14699999999999516
-455.6913749506467	0.16199999999999515
-456.15618747344746	0.16033333333332847
-456.6210223906392	0.16
-457.0858797038461	0.12833333333333333
-457.55075941468147	0.11733333333332363
-458.01566152476505	0.15866666666666182
-458.48058603571457	0.12366666666666182
-458.9455329491584	0.14800000000000485
-459.41050226670126	0.12033333333332848
-459.8754939899715	0.16300000000000486
-460.3405081205869	0.18466666666667153
-460.80554466017145	0.11133333333333818
-461.27060361033637	0.1810000000000097
-461.7356849727057	0.16199999999999515
-462.2007887489016	0.16766666666667637
-462.66591494054575	0.20766666666667638
-463.1310635492517	0.15433333333334304
-463.5962345766456	0.20233333333332362
-464.0614280243451	0.17566666666665698
-464.5266438939766	0.15600000000000971
-464.9918821871533	0.12233333333332364
-465.45714290550154	0.3039999999999903
-465.92242605064325	0.2513333333333382
-466.3877316242004	0.3030000000000049
-466.8530596277885	0.3210000000000097
-467.318410063036	0.22733333333332365
-467.7837829315627	0.24633333333333818
-468.24917823499277	0.19366666666666182
-468.71459597494373	0.22166666666666668
-469.18003615304195	0.22066666666665696
-469.64549877090946	0.2739999999999903
-470.1109838301681	0.25
-470.57649133244644	0.32733333333332365
-471.0420212793577	0.3453333333333285
-471.5075736725304	0.285
-471.9731485135887	0.3413333333333382
-472.4387458041588	0.3663333333333382
-472.90436554585847	0.24199999999999514
-473.37000774031173	0.3283333333333333
-473.83567238914713	0.27566666666665696
-474.3013594939909	0.14800000000000485
-474.7670690564607	0.24766666666667636
-475.2328010781829	0.21866666666666182
-475.6985555607837	0.1853333333333285
-476.16433250588943	0.33699999999999514
-476.6301319151221	0.33733333333332366
-477.0959537901058	0.36766666666667636
-477.561798132469	0.44466666666667154
-478.0276649438424	0.34833333333333333
-478.49355422583926	0.3523333333333236
-478.9594659800923	0.23033333333332848
-479.4254002082258	0.22833333333333333
-479.89135691187255	0.3460000000000097
-480.3573360926479	0.3376666666666764
-480.8233377521847	0.30199999999999516
-481.28936189210935	0.30833333333333335
-481.7554085140502	0.48633333333333817
-482.22147761962714	0.3473333333333236
-482.6875692104729	0.4023333333333236
-483.1536832882138	0.40699999999999514
-483.61981985448057	0.5126666666666764
-484.08597891089505	0.48133333333333816
-484.5521604590836	0.5283333333333333
-485.0183645006812	0.5863333333333381
-485.48459103731415	0.49966666666667153
-485.9508400706044	0.49
-486.4171116021848	0.47800000000000487
-486.88340563368376	0.49433333333334306
-487.3497221667342	0.5583333333333333
-487.81606120295794	0.6016666666666667
-488.28242274398355	0.5610000000000097
-488.74880679144593	0.6780000000000048
-489.21521334697366	0.6153333333333285
-489.6816424121908	0.5623333333333236
-490.14809398872796	0.6339999999999903
-490.6145680782202	0.6260000000000097
-491.08106468229596	0.5586666666666619
-491.54758380257937	0.5966666666666667
-492.0141254407076	0.6860000000000097
-492.48068959830687	0.6523333333333237
-492.94727627700786	0.6473333333333237
-493.41388547844775	0.6733333333333333
-493.8805172042485	0.8216666666666667
-494.34717145604293	0.9173333333333237
-494.813848235466	0.9239999999999903
-495.2805475441505	0.9760000000000097
-495.74726938372055	1.0789999999999902
-496.2140137558112	1.099333333333343
-496.68078066205516	1.1266666666666667
-497.1475701040875	1.2846666666666715
-497.6143820835323	1.1960000000000097
-498.0812166020267	1.3846666666666716
-498.54807366120355	1.4456666666666569
-499.0149532626978	1.593666666666662
-499.48185540813364	1.7453333333333285
-499.94878009915027	1.9226666666666763
-500.4157273373806	2.109333333333343
-500.8826971244617	2.0876666666666766
-501.3496894620156	2.3533333333333335
-501.8167043516837	2.5073333333333236
-502.28374179509893	2.65399999999999
-502.75080179389835	3.125
-503.21788434970614	3.4953333333333285
-503.6849894641659	3.775
-504.15211713890614	4.261333333333338
-504.6192673755683	4.702666666666676
-505.0864401757787	5.12
-505.5536355411745	5.738000000000005
-506.02085347339505	6.31100000000001
-506.48809397407314	7.000333333333328
-506.9553570448415	7.525333333333329
-507.4226426873352	8.05399999999999
-507.8899509031935	8.232666666666676
-508.35728169405576	8.585
-508.8246350615461	8.695
-509.2920110073081	8.47600000000001
-509.7594095329768	8.270666666666656
-510.22683064019367	7.706999999999995
-510.6942743305851	7.263333333333334
-511.1617406057946	6.586666666666667
-511.62922946745715	5.95
-512.0967409172122	5.423666666666662
-512.5642749566924	4.794333333333343
-513.0318315875372	4.261666666666667
-513.4994108113838	3.8653333333333286
-513.9670126298691	3.49
-514.4346370446391	3.0833333333333335
-514.9022840573178	2.6373333333333235
-515.3699536695513	2.2816666666666667
-515.8376458829763	2.185
-516.3053606992369	1.9113333333333382
-516.7730981199612	1.8416666666666666
-517.2408581467931	1.6576666666666764
-517.7086407813741	1.509333333333343
-518.1764460253412	1.4283333333333332
-518.6442738803315	1.289333333333343
-519.1121243479846	1.1826666666666763
-519.5799974299438	1.0833333333333333
-520.0478931278486	1.1146666666666716
-520.5158114433318	1.0219999999999951
-520.9837523780393	0.8633333333333333
-521.4517159336124	0.8793333333333431
-521.9197021116904	0.8776666666666764
-522.3877109139106	0.8556666666666569
-522.8557423419145	0.7460000000000097
-523.3237963973435	0.6919999999999952
-523.7918730818434	0.7273333333333236
-524.2599723970492	0.6816666666666666
-524.7280943446024	0.6073333333333236
-525.1962389261444	0.6013333333333382
-525.6644061433254	0.5760000000000097
-526.132595997774	0.5180000000000049
-526.6008084911402	0.5489999999999903
-527.0690436250634	0.5063333333333382
-527.5373014011916	0.47933333333334305
-528.0055818211553	0.48833333333333334
-528.4738848866069	0.5273333333333237
-528.9422105991858	0.41833333333333333
-529.4105589605377	0.4153333333333285
-529.8789299722998	0.4510000000000097
-530.3473236361201	0.29300000000000487
-530.8157399536378	0.35433333333334305
-531.2841789265054	0.2436666666666618
-531.7526405563557	0.19333333333333333
-532.2211248448366	0.21
-532.6896317935916	0.26666666666666666
-533.1581614042711	0.23733333333332363
-533.6267136785101	0.21166666666666667
-534.0952886179564	0.25466666666667154
-534.5638862242538	0.215
-535.0325064990544	0.1939999999999903
-535.5011494439935	0.1789999999999903
-535.9698150607188	0.11733333333332363
-536.4385033508763	0.16866666666666183
-536.9072143161118	0.2839999999999903
-537.3759479580754	0.24266666666667636
-537.8447042784043	0.2313333333333382
-538.3134832787485	0.33233333333332366
-538.782284960754	0.305
-539.251109326071	0.26699999999999513
-539.7199563763363	0.2203333333333285
-540.1888261132026	0.29066666666665697
-540.6577185383156	0.24699999999999514
-541.1266336533254	0.20733333333332363
-541.5955714598736	0.07433333333334304
-542.0645319596101	0.10699999999999515
-542.533515154181	0.2339999999999903
-543.0025210452385	0.23833333333333334
-543.471549634422	0.21933333333334304
-543.9406009233837	0.2360000000000097
-544.4096749137716	0.245
-544.8787716072381	0.13300000000000486
-545.3478910054247	0.21899999999999029
-545.8170331099792	0.1786666666666618
-546.2861979225542	0.13466666666667151
-546.7553854448018	0.12199999999999515
-547.2245956783636	0.09
-547.6938286248898	0.12199999999999515
-548.1630842860326	0.1210000000000097
-548.6323626634443	0.0639999999999903
-549.1016637587664	0.08166666666666667
-549.5709875736515	0.14433333333334303
-550.0403341097515	0.14666666666666667
-550.5097033687211	0.10033333333332849
-550.9790953521997	0.14566666666665695
-551.4485100618417	0.05199999999999515
-551.9179474992993	0.24266666666667636
-552.3874076662273	0.08699999999999515
-552.8568905642691	0.09133333333333818
-553.326396195077	0.075
-553.7959245603034	0.1289999999999903
-554.2654756616051	0.07699999999999516
-554.7350495006234	0.002333333333323632
-555.2046460790151	0.09433333333334304
-555.6742653984302	0.1039999999999903
-556.1439074605275	0.06
-556.6135722669509	0.06533333333332848
-557.0832598193547	0.028333333333333332
-557.5529701193913	0.0660000000000097
-558.0227031687151	0.035333333333328484
-558.4924589689829	0.07766666666667636
-558.9622375218382	0.07300000000000485
-559.4320388289378	0.125
-559.901862891936	0.1
-560.3717097124897	0.11666666666666667
-560.8415792922447	0.1310000000000097
-561.3114716328574	0.033666666666661814
-561.7813867359847	0.010666666666656966
-562.2513246032833	0.11833333333333333
-562.7212852363965	0.11033333333332848
-563.1912686369857	0.058666666666661815
-563.6612748067051	0.14233333333332363
-564.1313037472138	0.09366666666666182
-564.6013554601575	0.03766666666667637
-565.0714299471971	0.06433333333334304
-565.5415272099829	0.1160000000000097
-566.0116472501801	0.11533333333332849
-566.4817900694323	0.10699999999999515
-566.9519556694008	0.08766666666667637
-567.4221440517421	0.12766666666667636
-567.8923552181149	0.058999999999990296
-568.3625891701673	0.03966666666667152
-568.8328459095582	0.07133333333333819
-569.3031254379463	0.028333333333333332
-569.7734277569925	0.04699999999999515
-570.2437528683452	0.05266666666667637
-570.7141007736628	0.005666666666656966
-571.1844714746044	0.035333333333328484
-571.6548649728329	0.085
-572.1252812699944	0.08466666666667151
-572.5957203677541	0.0460000000000097
-573.0661822677644	0.01
-573.5366669716926	0.03866666666666182
-574.007174481187	0.012666666666676369
-574.4777047979082	0.08266666666667637
-574.9482579235155	0.0610000000000097
-575.4188338596717	0.13066666666665697
-575.889432608027	0.08800000000000485
-576.360054170247	0.01
-576.8306985479859	0.14266666666667638
-577.3013657429113	0.07733333333332364
-577.7720557566712	-0.0006666666666569654
-578.242768590931	0.026333333333338184
-578.7135042473494	0.11133333333333818
-579.1842627275896	0.0189999999999903
-579.6550440333061	0.029333333333343033
-580.1258481661622	-0.030333333333328483
-580.5966751278165	0.12066666666665697
-581.0675249199302	0.16533333333332847
-581.5383975441686	0.13066666666665697
-582.0092930021859	-0.003999999999990299
-582.4802112956436	0.049333333333343034
-582.9511524262044	0.0889999999999903
-583.422116395534	0.08766666666667637
-583.8931032052844	0.02
-584.3641128571234	0.13699999999999515
-584.8351453527096	0.08133333333333818
-585.3062006937128	0.0310000000000097
-585.7772788817853	0.0033333333333333335
-586.2483799185924	0.0160000000000097
-586.7195038057973	0.05266666666667637
-587.1906505450675	0.155
-587.6618201380553	0.12666666666666668
-588.1330125864282	0.11800000000000485
-588.6042278918516	0.011000000000009702
-589.0754660559908	-0.003999999999990299
-589.5467270805024	-0.015666666666656965
-590.0180109670519	0.034666666666671515
-590.4893177173043	0.010333333333328483
-590.9606473329275	0.11466666666667152
-591.4319998155779	0.13466666666667151
-591.9033751669209	0.14333333333333334
-592.3747733886241	0.0460000000000097
-592.8461944823549	0.016333333333338185
-593.3176384497699	0.06300000000000484
-593.7891052925389	0.09133333333333818
-594.2605950123251	0.05333333333333334
-594.732107610798	0.058666666666661815
-595.2036430896144	0.13366666666666183
-595.6752014504461	0.09266666666667636
-596.1467826949563	0.15733333333332364
-596.6183868248166	0.1253333333333285
-597.090013841684	0.033666666666661814
-597.5616637472281	0.04866666666666181
-598.0333365431163	0.059333333333343036
-598.5050322310183	0.014666666666671517
-598.9767508125929	0.03699999999999515
-599.4484922895119	0.1160000000000097
-599.9202566634386	0.08733333333332363
-600.3920439360492	0.2110000000000097
-600.863854108998	0.17966666666667153
-601.3356871839613	0.2139999999999903
-601.8075431626023	0.25333333333333335
-602.2794220465906	0.14933333333334303
-602.7513238376002	0.17933333333334303
-603.2232485372857	0.1139999999999903
-603.6951961473254	0.15766666666667636
-604.1671666693824	0.04833333333333333
-604.6391601051329	0.13
-605.1111764562378	0.12699999999999514
-605.583215724367	0.1946666666666715
-606.05527791119	0.011000000000009702
-606.5273630183831	0.043333333333333335
-606.999471047605	0.15433333333334304
-607.4716020005297	0.12699999999999514
-607.943755878825	0.12800000000000486
-608.4159326841688	0.11966666666667151
-608.8881324182223	0.10366666666666181
-609.3603550826554	0.21833333333333332
-609.8326006791439	0.26666666666666666
-610.3048692093575	0.22266666666667637
-610.7771606749619	0.20333333333333334
-611.2494750776308	0.09833333333333333
-611.721812419036	0.1660000000000097
-612.1941727008518	0.019333333333343035
-612.6665559247411	0.13033333333332847
-613.1389620923824	0.035666666666656965
-613.611391205443	0.04866666666666181
-614.0838432656016	0.0789999999999903
-614.5563182745187	0.105
-615.0288162338753	0.17199999999999516
-615.5013371453408	0.050333333333328484
-615.9738810105914	0.059333333333343036
-616.4464478312925	0.14333333333333334
-616.9190376091203	0.16
-617.3916503457488	0.09666666666666666
-617.864286042854	0.10033333333332849
-618.3369447021014	0.11566666666665697
-618.8096263251693	0.13933333333334302
-619.2823309137297	0.11300000000000485
-619.7550584694607	0.07466666666667152
-620.2278089940298	0.15266666666667636
-620.7005824891135	0.13033333333332847
-621.1733789563854	0.12233333333332364
-621.6461983975241	0.0689999999999903
-622.1190408141993	0.15600000000000971
-622.5919062080848	0.051333333333338185
-623.0647945808612	0.06800000000000485
-623.5377059342026	0.05699999999999515
-624.0106402697763	0.09199999999999516
-624.4835975892653	0.16233333333332364
-624.9565778943412	0.20333333333333334
-625.4295811866824	0.14633333333333817
-625.9026074679693	0.11233333333332363
-626.3756567398653	0.04733333333332363
-626.8487290040574	0.14066666666665698
-627.321824262215	0.11533333333332849
-627.7949425160232	0.12433333333334304
-628.2680837671494	0.11166666666666666
-628.7412480172742	0.09699999999999515
-629.2144352680758	0.15333333333333332
-629.6876455212326	0.14633333333333817
-630.1608787784166	0.0610000000000097
-630.6341350413081	0.06733333333332363
-631.1074143115856	0.06633333333333818
-631.5807165909295	0.04666666666666667
-632.0540418810094	0.04133333333333818
-632.5273901835083	0.12166666666666667
-633.0007615001064	0.0939999999999903
-633.4741558324843	-0.024333333333343036
-633.9475731823117	0.049333333333343034
-634.4210135512734	0.03933333333334303
-634.8944769410457	0.0189999999999903
-635.3679633533155	0.016333333333338185
-635.8414727897504	0.07
-636.315005252035	0.0389999999999903
-636.7885607418502	0.14033333333332848
-637.2621392608784	-0.030666666666656964
-637.7357408107915	0.035666666666656965
-638.2093653932745	0.03766666666667637
-638.6830130100077	0.043000000000004854
-639.1566836626739	0.11666666666666667
-639.6303773529492	0.04233333333332363
-640.104094082512	0.135
-640.5778338530494	0.1139999999999903
-641.0515966662439	0.0939999999999903
-641.5253825237696	0.19300000000000486
-641.9991914273114	0.13466666666667151
-642.4730233785497	0.1
-642.9468783791716	0.1039999999999903
-643.4207564308512	0.1239999999999903
-643.894657535273	-0.0189999999999903
-644.3685816941202	0.07
-644.8425289090794	-0.029666666666671518
-645.3164991818247	0.0339999999999903
-645.7904925140433	-0.0660000000000097
-646.2645089074176	-0.033666666666661814
-646.7385483636306	0.009333333333343035
-647.2126108843712	-0.006666666666666667
-647.6866964713114	-0.01
-648.1608051261403	-0.012333333333323633
-648.6349368505428	-0.01
-649.1090916462059	0.057666666666676365
-649.5832695148059	0.04133333333333818
-650.0574704580297	-0.0010000000000097012
-650.5316944775642	-0.015
-651.0059415750944	0.006333333333338184
-651.4802117522987	-0.036333333333338186
-651.9545050108684	0.049333333333343034
-652.4288213524839	0.013999999999990298
-652.9031607788367	0.06833333333333333
-653.377523291605	-0.01
-653.851908892476	0.08966666666667152
-654.3263175831366	0.085
-654.8007493652782	0.14066666666665698
-655.275204240577	0.1710000000000097
-655.7496822107221	0.10066666666665697
-656.2241832774027	0.0016666666666666668
-656.6987074423081	0.04
-657.1732547071144	0.12033333333332848
-657.647825073515	0.026333333333338184
-658.1224185431972	0.08133333333333818
-658.5970351178521	0.06699999999999515
-659.071674799156	0.12199999999999515
-659.5463375888046	-0.002666666666676368
-660.0210234884827	0.08933333333334303
-660.4957324998816	0.1989999999999903
-660.970464624684	0.10366666666666181
-661.4452198645815	0.03166666666666667
-661.9199982212587	0.059333333333343036
-662.3947996964134	0.03966666666667152
-662.8696242917221	0.11566666666665697
-663.3444720088801	0.0460000000000097
-663.8193428495747	0.1360000000000097
-664.2942368154993	0.11733333333332363
-664.7691539083344	0.10966666666667152
-665.2440941297757	0.0460000000000097
-665.7190574815126	0.08766666666667637
-666.1940439652361	0.028999999999990297
-666.6690535826314	0.07199999999999515
-667.1440863353895	-0.006999999999995149
-667.6191422252042	0.0660000000000097
-668.0942212537668	0.05466666666667152
-668.5693234227599	-0.06433333333334304
-669.0444487338814	-0.0189999999999903
-669.5195971888182	0.07933333333334304
-669.9947687892642	0.03933333333334303
-670.4699635369146	0.016333333333338185
-670.9451814334525	0.033666666666661814
-671.4204224805712	0.12733333333332364
-671.8956866799642	0.0489999999999903
-672.3709740333295	0.014666666666671517
-672.8462845423476	0.12166666666666667
-673.3216182087161	0.05300000000000485
-673.7969750341267	-0.04466666666667152
-674.2723550202793	0.0019999999999951493
-674.7477581688544	0.12633333333333818
-675.2231844815498	0.041666666666666664
-675.6986339600613	-0.013666666666661815
-676.1741066060845	0.08366666666666181
-676.6496024213021	-0.02666666666666667
-677.1251214074143	-0.04666666666666667
-677.6006635661165	-0.07366666666666181
-678.0762288991046	0.030333333333328483
-678.5518174080635	0.1089999999999903
-679.0274290946908	0.05300000000000485
-679.5030639606846	0.06766666666667637
-679.9787220077426	0.07866666666666182
-680.4544032375497	0.12233333333332364
-680.9301076518038	0.04199999999999515
-681.4058352522029	0.013666666666661815
-681.8815860404445	0.033666666666661814
-682.3573600182182	0.07033333333332849
-682.8331571872193	0.015666666666656965
-683.308977549148	0.09233333333332364
-683.7848211057002	0.0610000000000097
-684.2606878585669	0.004333333333343035
-684.7365778094462	0.08033333333332848
-685.2124909600358	0.030666666666656964
-685.688427312038	0.03333333333333333
-686.1643868671355	0.03699999999999515
-686.640369627037	0.018333333333333333
-687.1163755934316	0.03966666666667152
-687.592404768028	0.06666666666666667
-688.0684571525112	0.06966666666667151
-688.5445327485811	0.027666666666676366
-689.0206315579399	0.055
-689.4967535822876	-0.029666666666671518
-689.9728988233136	0.06566666666665696
-690.4490672827199	0.06199999999999515
-690.9252589622043	0.059333333333343036
-691.4014738634692	0.10666666666666667
-691.8777119882124	0.11300000000000485
-692.3539733381273	0.15766666666667636
-692.8302579149183	0.07133333333333819
-693.3065657202812	0.06466666666667152
-693.782896755916	0.09433333333334304
-694.2592510235271	0.025
-694.7356285248057	0.04233333333332363
-695.2120292614607	0.0060000000000097016
-695.6884532351831	-0.003999999999990299
-696.1649004476822	0.011333333333338184
-696.6413709006488	0.04766666666667637
-697.1178645957918	0.00800000000000485
-697.5943815348027	-0.005333333333328483
-698.0709217193943	0.016333333333338185
-698.547485151258	-0.0033333333333333335
-699.0240718320983	0.012666666666676369
-699.5006817636153	0.09333333333333334
-699.977314947513	0.07100000000000971
-700.4539713854917	0.08466666666667151
-700.9306510792559	0.13833333333333334
-701.4073540305009	0.15766666666667636
-701.8840802409356	0.0560000000000097
-702.3608297122558	0.008333333333333333
-702.8376024461702	-0.041666666666666664
-703.3143984443786	0.014666666666671517
-703.7912177085856	-0.125
-704.2680602404868	-0.0560000000000097
-704.7449260417994	-0.05699999999999515
-705.221815114215	0.010333333333328483
-705.6987274594424	-0.0560000000000097
-706.1756630791813	-0.013000000000004851
-706.6526219751405	0.04800000000000485
-707.1296041490159	-0.012666666666676369
-707.6066096025246	-0.008666666666661816
-708.0836383373583	-0.09333333333333334
-708.5606903552296	-0.1060000000000097
-709.0377656578345	-0.06233333333332363
-709.5148642468903	-0.028666666666661816
-709.9919861240926	0.06666666666666667
-710.4691312911503	-0.05266666666667637
-710.9462997497633	0.022333333333323633
-711.4234915016445	0.09366666666666182
-711.9007065484986	0.02199999999999515
-712.3779448920254	0.02199999999999515
-712.855206533938	0.023666666666661815
-713.3324914759364	0.05300000000000485
-713.8097997197294	0.04
-714.2871312670255	0.12199999999999515
-714.7644861195292	0.12333333333333334
-715.2418642789494	0.06966666666667151
-715.71926574699	0.050666666666656965
-716.19669052536	0.019666666666671516
-716.6741386157682	0.0060000000000097016
-717.1516100199144	0.011666666666666667
-717.6291047395205	0.0160000000000097
-718.1066227762776	0.04199999999999515
-718.5841641319076	0.025
-719.0617288081106	-0.034666666666671515
-719.5393168065996	0.04533333333332848
-720.0169281290788	0.06300000000000484
-720.4945627772613	0.19066666666665696
-720.9722207528516	0.1660000000000097
-721.4499020575627	0.12333333333333334
-721.9276066930988	0.15566666666665696
-722.4053346611774	0.20233333333332362
-722.8830859634986	0.07166666666666667
-723.3608606017754	0.030333333333328483
-723.8386585777207	0.058333333333333334
-724.3164798930433	-0.03666666666666667
-724.7943245494477	0.01199999999999515
-725.272192548651	0.058999999999990296
-725.7500838923621	0.08566666666665697
-726.2279985822896	0.035666666666656965
-726.7059366201466	0.14300000000000485
-727.1838980076462	0.0739999999999903
-727.6618827464928	0.15233333333332363
-728.1398908384035	0.09166666666666666
-728.6179222850873	0.1260000000000097
-729.095977088257	0.08566666666665697
-729.5740552496214	0.14433333333334303
-730.052156770898	0.10666666666666667
-730.5302816537911	0.11833333333333333
-731.0084299000223	0.023333333333333334
-731.4866015113004	0.0839999999999903
-731.964796489334	0.10800000000000486
-732.4430148358406	0.03199999999999515
-732.9212565525332	0.12133333333333818
-733.3995216411205	0.005
-733.8778101033242	0.08233333333332363
-734.3561219408443	0.03933333333334303
-734.8344571554113	0.030333333333328483
-735.3128157487251	0.03666666666666667
-735.7911977225033	0.08233333333332363
-736.2696030784673	0.13066666666665697
-736.7480318183216	0.1
-737.2264839437879	0.08233333333332363
-737.7049594565793	0.06366666666666182
-738.1834583584089	0.1
-738.6619806509894	0.08466666666667151
-739.1405263360386	0.08933333333334303
-739.6190954152737	0.065
-740.0976878904078	0.026333333333338184
-740.5763037631581	-0.026000000000009703
-741.054943035242	0.04800000000000485
-741.5336057083684	0.02266666666667637
-742.0122917842632	0.044333333333343036
-742.4910012646309	0.03966666666667152
-742.9697341512017	0.01
-743.44849044568	0.011000000000009702
-743.927270149792	-0.028333333333333332
-744.4060732652506	0.07166666666666667
-744.8848997937732	-0.026000000000009703
-745.3637497370773	-0.017666666666676368
-745.8426230968801	0.105
-746.3215198748991	0.1389999999999903
-746.8004400728515	0.06066666666665697
-747.2793836924593	0.09533333333332848
-747.7583507354353	0.06333333333333334
-748.2373412035014	0.030333333333328483
-748.716355098379	0.009333333333343035
-749.1953924217772	0.08933333333334303
-749.6744531754217	0.07933333333334304
-750.1535373610302	0.04766666666667637
-750.6326449803285	0.07100000000000971
-751.111776035021	0.010333333333328483
-751.5909305268425	0.015666666666656965
-752.0701084575018	0.011333333333338184
-752.5493098287246	-0.013666666666661815
-753.0285346422287	0.007333333333323632
-753.5077828997398	0.033666666666661814
-753.987054602967	0.0789999999999903
-754.4663497536402	0.07833333333333334
-754.9456683534771	0.0689999999999903
-755.4250104042037	0.0989999999999903
-755.9043759075286	0.011333333333338184
-756.3837648651867	0.0460000000000097
-756.8631772788864	0.09199999999999516
-757.3426131503628	0.10199999999999515
-757.8220724813286	0.023333333333333334
-758.3015552735102	0.07933333333334304
-758.7810615286247	0.049333333333343034
-759.2605912483939	0.0789999999999903
-759.7401444345481	0.10866666666666182
-760.2197210888049	0.09066666666665696
-760.6993212128901	0.025
-761.1789448085212	0.043000000000004854
-761.6585918774243	0.03800000000000485
-762.1382624213211	0.004666666666671517
-762.6179564419375	0.04833333333333333
-763.0976739409954	0.05266666666667637
-763.5774149202207	0.012333333333323633
-764.0571793813351	0.015
-764.5369673260649	-0.013000000000004851
-765.0167787561315	0.01699999999999515
-765.4966136732611	0.08566666666665697
-765.9764720791754	0.05633333333333818
-766.4563539756049	0.0460000000000097
-766.9362593642668	-0.051000000000009704
-767.4161882468959	-0.025666666666656967
-767.8961406252051	0.08699999999999515
-768.3761165009338	-0.006999999999995149
-768.856115875799	-0.0030000000000048508
-769.336138751527	-0.0030000000000048508
-769.8161851298437	0.0010000000000097012
-770.2962550124796	0.0339999999999903
-770.7763484011564	0.04566666666665697
-771.2564652976043	0.11333333333333333
-771.7366057035454	0.019666666666671516
-772.2167696207097	0.09466666666667152
-772.6969570508234	0.035666666666656965
-773.1771679956125	0.11466666666667152
-773.6574024568075	0.10199999999999515
-774.1376604361301	0.017666666666676368
-774.6179419353149	0.04633333333333818
-775.0982469560837	0.0560000000000097
-775.578575500167	-0.03866666666666182
-776.0589275692992	0.030666666666656964
-776.5393031651936	0.06733333333332363
-777.0197022895935	-0.010666666666656966
-777.5001249442207	0.08766666666667637
-777.9805711308056	0.0689999999999903
-778.4610408510741	0.052333333333323635
-778.941534106761	0.023333333333333334
-779.422050899588	0.06933333333334303
-779.9025912312899	0.06699999999999515
-780.383155103597	0.06233333333332363
-780.8637425182397	0.0610000000000097
-781.3443534769441	-0.006666666666666667
-781.8249879814406	-0.012333333333323633
-782.3056460334637	-0.009333333333343035
-782.7863276347398	-0.08766666666667637
-783.2670327870034	-0.014333333333343034
-783.7477614919806	0.07033333333332849
-784.2285137514104	0.0060000000000097016
-784.7092895670147	-0.021000000000009702
-785.190088940528	-0.0439999999999903
-785.6709118736851	0.050333333333328484
-786.1517583682121	0.005666666666656966
-786.632628425848	0.03233333333332363
-787.1135220483189	0.043333333333333335
-787.5944392373596	0.14800000000000485
-788.0753799947003	0.08699999999999515
-788.5563443220758	0.004666666666671517
-789.0373322212208	0.04833333333333333
-789.5183436938614	0.042666666666676366
-789.9993787417368	0.05633333333333818
-790.4804373665771	0.034666666666671515
-790.9615195701215	0.051666666666666666
-791.4426253540961	0.04533333333332848
-791.9237547202398	-0.02300000000000485
-792.4049076702788	-0.03733333333332363
-792.8860842059564	0.04866666666666181
-793.3672843290032	0.07666666666666666
-793.8485080411537	0.09300000000000486
-794.3297553441382	-0.0460000000000097
-794.8110262397004	-0.013000000000004851
-795.2923207295705	0.05266666666667637
-795.7736388154832	-0.08600000000000971
-796.2549804991734	-0.04733333333332363
-796.7363457823756	-0.03
-797.217734666829	0.03233333333332363
-797.6991471542682	-0.013666666666661815
-798.180583246428	0.09466666666667152
-798.6620429450433	0.08533333333332849
-799.1435262518528	0.06933333333334303
-799.6250331685959	0.052333333333323635
-800.1065636969985	0.0239999999999903
-800.5881178388125	0.04466666666667152
-801.06969559576	0.0019999999999951493
-801.5512969695884	0.06300000000000484
-802.0329219620326	0.05199999999999515
-802.5145705748272	0.13366666666666183
-802.9962428097114	0.011666666666666667
-803.4779386684241	0.0189999999999903
-803.9596581527046	0.008999999999990299
-804.4414012642874	0.09566666666665696
-804.9231680049115	0.04033333333332848
-805.4049583763206	0.028333333333333332
-805.8867723802448	0.0310000000000097
-806.368610018432	-0.1110000000000097
-806.8504712926126	0.01699999999999515
-807.3323562045299	0.042666666666676366
-807.8142647559273	-0.0889999999999903
-808.2961969485352	-0.0003333333333284827
-808.7781527841014	0.03833333333333333
-809.2601322643649	-0.028333333333333332
-809.7421353910604	-0.015
-810.2241621659313	0.0003333333333284827
-810.7062125907211	-0.06233333333332363
-811.1882866671644	-0.008666666666661816
-811.6703843970047	-0.09033333333332848
-812.1525057819853	-0.021666666666666667
-812.634650823841	0.08133333333333818
-813.1168195243196	0.06266666666667636
-813.5990118851643	0.03833333333333333
-814.0812279081055	0.04800000000000485
-814.5634675948954	0.01699999999999515
-815.0457309472688	0.0739999999999903
-815.5280179669776	0.07199999999999515
-816.0103286557522	0.042666666666676366
-816.4926630153448	0.13566666666665697
-816.9750210474899	0.16199999999999515
-817.4574027539397	0.09833333333333333
-817.9398081364247	0.13033333333332847
-818.4222371967012	0.10933333333334304
-818.9046899365038	0.10666666666666667
-819.3871663575804	0.19
-819.8696664616701	0.205
