-194.34305441739858	0.08666666666666667
-194.79536075947718	0.095
-195.24768859823178	0.05633333333333818
-195.70003793519538	0.1713333333333382
-196.15240877190544	0.17699999999999516
-196.60480110989712	0.08600000000000971
-197.0572149506927	0.033666666666661814
-197.50965029583173	0.0639999999999903
-197.96210714684943	0.09366666666666182
-198.41458550527886	-0.065
-198.86708537264877	-0.017333333333323632
-199.31960675049436	-0.049666666666671515
-199.77214964035304	0.05633333333333818
-200.22471404376003	-0.015
-200.6772999622419	0.11366666666666182
-201.12990739733607	0.06966666666667151
-201.58253635057773	-0.013333333333333334
-202.03518682350864	0.04566666666665697
-202.48785881765102	0.042666666666676366
-202.9405523345444	-0.09033333333332848
-203.39326737572623	-0.04199999999999515
-203.8460039427339	-0.12366666666666182
-204.29876203709608	-0.051000000000009704
-204.75154166035023	0.00800000000000485
-205.20434281403158	0.01699999999999515
-205.657165499684	-0.011000000000009702
-206.1100097188319	-0.001333333333338184
-206.5628754730148	-0.004333333333343035
-207.01576276377017	0.0689999999999903
-207.4686715926397	0.05566666666665696
-207.92160196115	-0.025666666666656967
-208.37455387084057	-0.058333333333333334
-208.82752732325102	-0.04699999999999515
-209.2805223199209	-0.0410000000000097
-209.73353886238107	-0.012666666666676369
-210.186576952169	-0.02300000000000485
-210.6396365908242	-0.10833333333333334
-211.09271777988843	0.015666666666656965
-211.5458205208926	-0.0019999999999951493
-211.99894481537407	0.015666666666656965
-212.45209066487462	0.021666666666666667
-212.90525807093158	-0.0660000000000097
-213.35844703508894	-0.019333333333343035
-213.81165755887318	0.029666666666671518
-214.26488964382827	0.02800000000000485
-214.7181432914937	-0.014666666666671517
-215.1714185034113	-0.011333333333338184
-215.62471528111405	-0.05466666666667152
-216.07803362614374	-0.04466666666667152
-216.53137354003772	-0.08033333333332848
-216.9847350243421	-0.03199999999999515
-217.43811808058777	0.015666666666656965
-217.8915227103186	0.02733333333332363
-218.3449489150742	0.022333333333323633
-218.79839669639847	-0.06233333333332363
-219.2518660558223	0.013999999999990298
-219.7053569948917	-0.028999999999990297
-220.15886951514634	0.024666666666671517
-220.61240361813222	0.06466666666667152
-221.06595930538026	0.035
-221.51953657843652	-0.019333333333343035
-221.9731354388406	0.003999999999990299
-222.4267558881385	-0.030333333333328483
-222.88039792786336	0.011333333333338184
-223.3340615595612	-0.06433333333334304
-223.78774678477382	0.03333333333333333
-224.24145360504505	-0.05433333333334303
-224.69518202191014	-0.003999999999990299
-225.14893203691736	0.014666666666671517
-225.6027036516041	-0.036333333333338186
-226.05649686752074	-0.028666666666661816
-226.51031168620037	-0.052333333333323635
-226.96414810918904	0.043666666666661816
-227.41800613802852	-0.03733333333332363
-227.87188577426917	0.001333333333338184
-228.3257870194441	0.06566666666665696
-228.77970987510153	-0.042666666666676366
-229.23365434278105	0.09
-229.68762042403517	0.008333333333333333
-230.14160812039702	0.011333333333338184
-230.59561743341484	-0.04133333333333818
-231.04964836463031	0.013666666666661815
-231.50370091559606	0.028333333333333332
-231.9577750878451	-0.06166666666666667
-232.41187088292793	-0.0760000000000097
-232.86598830238617	-0.07033333333332849
-233.32012734776816	0.017666666666676368
-233.7742880206199	-0.0439999999999903
-234.22847032247884	-0.07800000000000486
-234.68267425489535	-0.09066666666665696
-235.13689981941337	-0.019666666666671516
-235.59114701758327	-0.03133333333333818
-236.04541585094248	0.028333333333333332
-236.49970632103924	0.041666666666666664
-236.95401842942178	-0.034333333333343034
-237.40835217763833	-0.0760000000000097
-237.86270756722848	-0.03300000000000485
-238.31708459974044	-0.13366666666666183
-238.7714832767225	0.06933333333334303
-239.22590359972503	-0.12833333333333333
-239.68034557028543	-0.09966666666667151
-240.13480918995845	-0.1
-240.58929446028583	-0.051000000000009704
-241.04380138282232	-0.06366666666666182
-241.49832995910532	-0.030666666666656964
-241.9528801906874	0.04199999999999515
-242.4074520791168	-0.017333333333323632
-242.86204562594392	0.03333333333333333
-243.31666083271054	0.04733333333332363
-243.771297700967	-0.02033333333332848
-244.2259562322616	-0.06433333333334304
-244.6806364281469	-0.003999999999990299
-245.13533829016242	0.030333333333328483
-245.59006181986516	0.04066666666665696
-246.04480701879896	0.0019999999999951493
-246.4995738885186	0.03300000000000485
-246.95436243056577	0.03233333333332363
-247.40917264649312	-0.015
-247.8640045378488	0.028999999999990297
-248.31885810618982	0.10100000000000971
-248.7737333530535	-0.036333333333338186
-249.22863027999898	0.004666666666671517
-249.68354888857013	0.008666666666661816
-250.13848918032602	-0.0160000000000097
-250.59345115680628	0.0189999999999903
-251.04843481956775	0.0739999999999903
-251.5034401701587	0.04666666666666667
-251.9584672101339	0.035
-252.41351594103722	0.049666666666671515
-252.86858636442344	0.05733333333332363
-253.3236784818451	-0.014333333333343034
-253.77879229485046	0.09666666666666666
-254.23392780499861	0.07100000000000971
-254.6890850138291	-0.002666666666676368
-255.14426392290102	0.05533333333332848
-255.59946453376477	0.05566666666665696
-256.0546868479773	0.010333333333328483
-256.50993086708246	-0.09066666666665696
-256.96519659263504	-0.005333333333328483
-257.42048402618974	-0.023666666666661815
-257.8757931693035	-0.08566666666665697
-258.3311240235181	-0.13833333333333334
-258.7864765903947	-0.01
-259.2418508714817	0.035333333333328484
-259.6972468683423	0.03300000000000485
-260.15266458251625	0.0310000000000097
-260.6081040155625	0.051333333333338185
-261.0635651690359	-0.07100000000000971
-261.51904804449543	-0.008333333333333333
-261.97455264348514	-0.0239999999999903
-262.43007896756177	0.05266666666667637
-262.88562701828454	-0.05566666666665696
-263.34119679720595	-0.024666666666671517
-263.7967883058765	-0.03133333333333818
-264.25240154585515	0.0003333333333284827
-264.70803651869454	-0.051333333333338185
-265.16369322595375	0.03166666666666667
-265.619371669181	0.0003333333333284827
-266.0750718499376	0.04633333333333818
-266.53079376977394	0.06566666666665696
-266.98653743025557	0.09866666666666181
-267.4423028329264	0.025666666666656967
-267.8980899793455	0.1436666666666618
-268.35389887107203	0.13166666666666665
-268.809729509665	0.14300000000000485
-269.26558189667264	0.05366666666666182
-269.7214560336541	0.1260000000000097
-270.1773519221706	0.14833333333333334
-270.6332695637768	0.09
-271.0892089600255	0.19933333333334302
-271.5451701124777	0.13033333333332847
-272.0011530226883	0.0610000000000097
-272.45715769222284	0.2086666666666618
-272.91318412262734	0.1386666666666618
-273.3692323154632	0.05
-273.8253022722893	0.16800000000000484
-274.28139399466926	0.28433333333334304
-274.73750748415335	0.2139999999999903
-275.19364274230077	0.2013333333333382
-275.6497997706705	0.24433333333334303
-276.10597857082377	0.30699999999999517
-276.56217914432193	0.1889999999999903
-277.0184014927153	0.25533333333332847
-277.47464561756743	0.25566666666665694
-277.9309115204373	0.33699999999999514
-278.38719920288827	0.3976666666666764
-278.84350866647304	0.345
-279.2998399127528	0.45
-279.75619294328885	0.33166666666666667
-280.21256775964673	0.42933333333334306
-280.6689643633747	0.374333333333343
-281.12538275604055	0.34300000000000486
-281.5818229392033	0.4203333333333285
-282.03828491442636	0.3516666666666667
-282.4947686832645	0.39866666666666184
-282.951274247279	0.2996666666666715
-283.4078016080354	0.35633333333333816
-283.8643507670972	0.35699999999999515
-284.32092172601693	0.45866666666666184
-284.77751448636013	0.3253333333333285
-285.23412904968814	0.4436666666666618
-285.69076541756647	0.44333333333333336
-286.1474235915499	0.37
-286.6041035732062	0.5253333333333284
-287.0608053640923	0.5346666666666715
-287.5175289657802	0.42266666666667635
-287.9742743798204	0.43166666666666664
-288.4310416077828	0.4483333333333333
-288.8878306512286	0.5713333333333381
-289.34464151172347	0.46366666666666184
-289.80147419082215	0.5616666666666666
-290.2583286900945	0.5053333333333285
-290.715205011104	0.44866666666666183
-291.17210315541405	0.52
-291.62902312458584	0.4010000000000097
-292.0859649201829	0.530666666666657
-292.54292854377076	0.5260000000000097
-292.99991399691714	0.5106666666666569
-293.45692128117906	0.4513333333333382
-293.91395039812414	0.5110000000000097
-294.3710013493181	0.5260000000000097
-294.8280741363286	0.5696666666666715
-295.2851687607126	0.6336666666666618
-295.74228522404	0.5966666666666667
-296.1994235278743	0.5276666666666764
-296.65658367378524	0.6076666666666763
-297.1137656633321	0.6736666666666619
-297.57096949808255	0.5696666666666715
-298.02819517960216	0.5163333333333382
-298.48544270945877	0.529333333333343
-298.9427120892222	0.6006666666666569
-299.40000332044724	0.4266666666666667
-299.8573164047082	0.5003333333333285
-300.3146513435705	0.530666666666657
-300.7720081386043	0.5280000000000048
-301.22938679136854	0.3636666666666618
-301.68678730343316	0.4686666666666618
-302.1442096763681	0.5010000000000097
-302.60165391174115	0.46066666666665695
-303.0591200111157	0.4633333333333333
-303.51660797605945	0.4760000000000097
-303.97411780814025	0.49033333333332846
-304.43164950893447	0.4576666666666764
-304.88920307999683	0.4063333333333382
-305.34677852290173	0.44266666666667637
-305.80437583921673	0.4336666666666618
-306.2619950305163	0.4789999999999903
-306.71963609835933	0.43233333333332363
-307.1772990443202	0.43533333333332846
-307.63498386996446	0.4239999999999903
-308.0926905768685	0.43199999999999517
-308.5504191665915	0.3389999999999903
-309.00816964070987	0.434333333333343
-309.4659420007891	0.32699999999999513
-309.92373624840354	0.42300000000000487
-310.3815523851166	0.3586666666666618
-310.8393904125025	0.38566666666665694
-311.2972503321312	0.3689999999999903
-311.7551321455748	0.41933333333334305
-312.21303585439887	0.4469999999999951
-312.6709614601733	0.44466666666667154
-313.12890896447465	0.4626666666666764
-313.58687836887265	0.38266666666667637
-314.0448696749352	0.3426666666666764
-314.50288288423224	0.3573333333333236
-314.9609179983401	0.44033333333332847
-315.41897501882875	0.36
-315.8770539472681	0.3960000000000097
-316.3351547852281	0.3410000000000097
-316.79327753428515	0.36966666666667153
-317.2514221960114	0.3426666666666764
-317.70958877197455	0.37333333333333335
-318.16777726374886	0.35066666666665697
-318.62598767290865	0.3839999999999903
-319.08422000102377	0.3260000000000097
-319.54247424967286	0.4039999999999903
-320.00075042041937	0.4123333333333236
-320.45904851484397	0.29133333333333816
-320.9173685345167	0.245
-321.3757104810161	0.41633333333333816
-321.8340743559077	0.4083333333333333
-322.2924601607681	0.33566666666665695
-322.7508678971735	0.39433333333334303
-323.20929756669835	0.31333333333333335
-323.6677491709125	0.33800000000000485
-324.1262227113924	0.2560000000000097
-324.58471818971447	0.4
-325.04323560745513	0.395
-325.50177496617994	0.3636666666666618
-325.96033626746976	0.2410000000000097
-326.4189195129009	0.33566666666665695
-326.87752470405206	0.3219999999999951
-327.33615184248663	0.2753333333333285
-327.7948009297897	0.28800000000000486
-328.25347196753336	0.32466666666667154
-328.7121649573005	0.3060000000000097
-329.17087990065465	0.18366666666666182
-329.6296167991787	0.3189999999999903
-330.0883756544512	0.28566666666665697
-330.5471564680486	0.15866666666666182
-331.0059592415409	0.37533333333332847
-331.4647839765066	0.35333333333333333
-331.9236306745287	0.2689999999999903
-332.3824993371814	0.33199999999999513
-332.841389966039	0.2619999999999951
-333.30030256268014	0.3036666666666618
-333.75923712868115	0.25800000000000484
-334.2181936656272	0.18866666666666182
-334.67717217508607	0.28
-335.13617265863843	0.2389999999999903
-335.59519511786516	0.2460000000000097
-336.05423955434696	0.2619999999999951
-336.5133059696538	0.2889999999999903
-336.9723943653707	0.2810000000000097
-337.431504743072	0.33800000000000485
-337.89063710434493	0.23666666666666666
-338.3497914507573	0.2496666666666715
-338.80896778389416	0.2683333333333333
-339.2681661053341	0.3573333333333236
-339.72738641665796	0.23933333333334303
-340.18662871944645	0.31266666666667636
-340.6458930152738	0.2210000000000097
-341.10517930572087	0.1946666666666715
-341.56448759237264	0.2560000000000097
-342.0238178768078	0.245
-342.48317016060497	0.2313333333333382
-342.9425444453427	0.29266666666667634
-343.4019407326039	0.310666666666657
-343.86135902397376	0.2989999999999903
-344.3207993210264	0.2196666666666715
-344.7802616253449	0.305666666666657
-345.23974593850994	0.300666666666657
-345.69925226211103	0.32666666666666666
-346.15878059771586	0.23166666666666666
-346.6183309469139	0.2683333333333333
-347.0779033112881	0.29333333333333333
-347.5374976924213	0.24733333333332364
-347.99711409189007	0.2633333333333333
-348.4567525112773	0.32366666666666183
-348.91641295217016	0.2936666666666618
-349.37609541615393	0.275
-349.8357999048005	0.27566666666665696
-350.2955264196995	0.24933333333334304
-350.7552749624338	0.24800000000000486
-351.21504553458846	0.24633333333333818
-351.6748381377421	0.2896666666666715
-352.13465277347984	0.3016666666666667
-352.59448944338675	0.23433333333334302
-353.05434814905016	0.2896666666666715
-353.51422889204645	0.2916666666666667
-353.9741316739629	0.2763333333333382
-354.43405649638464	0.25666666666666665
-354.8940033608989	0.23733333333332363
-355.35397226908435	0.23966666666667152
-355.8139632225282	0.3036666666666618
-356.2739762228155	0.23800000000000485
-356.73401127153585	0.24233333333332363
-357.19406837026554	0.2313333333333382
-357.65414752059405	0.24866666666666182
-358.1142487241087	0.23166666666666666
-358.5743719823988	0.265
-359.0345172970388	0.259333333333343
-359.49468466962236	0.19699999999999515
-359.95487410173456	0.2713333333333382
-360.4150855949649	0.19033333333332847
-360.875319150892	0.16766666666667637
-361.3355747711074	0.18366666666666182
-361.79585245719625	0.25466666666667154
-362.25615221074577	0.18733333333332364
-362.7164740333498	0.21933333333334304
-363.17681792658476	0.23833333333333334
-363.63718389204223	0.3113333333333382
-364.09757193130946	0.25800000000000484
-364.5579820459781	0.2889999999999903
-365.01841423763113	0.30766666666667636
-365.47886850785574	0.2753333333333285
-365.93934485824354	0.31300000000000483
-366.399843290384	0.27
-366.8603638058601	0.28833333333333333
-367.32090640626336	0.24733333333332364
-367.78147109318115	0.2539999999999903
-368.24205786820716	0.25733333333332364
-368.70266673292434	0.24199999999999514
-369.16329768892433	0.1553333333333285
-369.6239507377966	0.23166666666666666
-370.08462588113264	0.29633333333333817
-370.54532312051765	0.2626666666666764
-371.00604245754323	0.2646666666666715
-371.46678389379883	0.2796666666666715
-371.92754743088034	0.2973333333333236
-372.38833307036856	0.18066666666665696
-372.84914081385944	0.21933333333334304
-373.3099706629424	0.20166666666666666
-373.7708226192113	0.2246666666666715
-374.23169668424896	0.1989999999999903
-374.69259285965353	0.23266666666667637
-375.15351114701235	0.2513333333333382
-375.6144515479234	0.22233333333332364
-376.07541406396757	0.20800000000000485
-376.53639869674294	0.295666666666657
-376.9974054478411	0.19233333333332364
-377.45843431885584	0.2873333333333236
-377.91948531137444	0.16333333333333333
-378.38055842698844	0.16300000000000486
-378.84165366729604	0.16800000000000484
-379.30277103388886	0.16
-379.7639105283541	0.16533333333332847
-380.22507215228774	0.2263333333333382
-380.68625590728135	0.14566666666665695
-381.1474617949353	0.13566666666665697
-381.6086898168324	0.19699999999999515
-382.06993997457306	0.2363333333333382
-382.5312122697467	0.205
-382.9925067039492	0.20766666666667638
-383.45382327877866	0.20233333333332362
-383.9151619958224	0.24300000000000485
-384.3765228566743	0.1710000000000097
-384.83790586293225	0.25300000000000483
-385.2993110161967	0.10966666666667152
-385.76073831804837	0.1946666666666715
-386.22218777009186	0.08666666666666667
-386.68365937391667	0.003666666666661816
-387.14515313112736	0.24033333333332849
-387.60666904330685	0.2013333333333382
-388.0682071120576	0.15933333333334304
-388.52976733897566	0.24766666666667636
-388.99134972565685	0.2410000000000097
-389.4529542736928	0.16933333333334302
-389.9145809846795	0.25833333333333336
-390.3762298602194	0.165
-390.83790090190627	0.18433333333334304
-391.2995941113338	0.2703333333333285
-391.7613094900981	0.14833333333333334
-392.22304703979927	0.15066666666665696
-392.68480676203774	0.2796666666666715
-393.1465886584029	0.2210000000000097
-393.608392730495	0.24699999999999514
-394.07021897991	0.1363333333333382
-394.53206740825254	0.12566666666665696
-394.99393801711204	0.16699999999999515
-395.4558308080888	0.22366666666666182
-395.91774578278097	0.21133333333333817
-396.37968294279096	0.2746666666666715
-396.84164228971036	0.22133333333333818
-397.3036238251394	0.2886666666666618
-397.7656275506785	0.22533333333332847
-398.22765346793005	0.2619999999999951
-398.68970157848565	0.22566666666665697
-399.15177188394773	0.1489999999999903
-399.61386438591444	0.115
-400.07597908599257	0.19699999999999515
-400.53811598576937	0.15
-401.0002750868516	0.19433333333334304
-401.4624563908375	0.1660000000000097
-401.92465989933146	0.17199999999999516
-402.38688561392746	0.16966666666667152
-402.8491335362279	0.20233333333332362
-403.3114036678331	0.11566666666665697
-403.7736960103475	0.16866666666666183
-404.2360105653672	0.14533333333332848
-404.69834733449255	0.14033333333332848
-405.160706319328	0.24066666666665695
-405.6230875214739	0.14
-406.08549094253493	0.1853333333333285
-406.54791658410477	0.24233333333332363
-407.01036444779027	0.22866666666666183
-407.47283453519384	0.21433333333334303
-407.93532684791796	0.17033333333332848
-408.3978413875608	0.11199999999999515
-408.86037815572683	0.17833333333333334
-409.3229371540164	0.17666666666666667
-409.78551838404076	0.18433333333334304
-410.2481218473935	0.15699999999999514
-410.7107475456772	0.2363333333333382
-411.1733954805007	0.2789999999999903
-411.63606565346873	0.295666666666657
-412.0987580661772	0.1596666666666715
-412.5614727202328	0.15066666666665696
-413.02420961724033	0.19133333333333818
-413.4869687588065	0.21300000000000485
-413.9497501465272	0.1313333333333382
-414.41255378201356	0.14266666666667638
-414.87537966686597	0.195
-415.3382278026954	0.26600000000000973
-415.801098191098	0.1786666666666618
-416.2639908336825	0.19833333333333333
-416.7269057320537	0.13466666666667151
-417.1898428878204	0.2313333333333382
-417.6528023025808	0.21
-418.1157839779439	0.19733333333332362
-418.57878791551644	0.24733333333332364
-419.0418141169052	0.24133333333333817
-419.5048625837104	0.2786666666666618
-419.9679333175411	0.21733333333332364
-420.4310263200041	0.12466666666667152
-420.8941415927104	0.264333333333343
-421.3572791372561	0.20199999999999516
-421.82043895525436	0.21733333333332364
-422.28362104831206	0.21199999999999514
-422.74682541803804	0.21766666666667636
-423.21005206603274	0.26733333333332365
-423.67330099390716	0.1646666666666715
-424.13657220326814	0.19300000000000486
-424.59986569572897	0.15666666666666668
-425.0631814728878	0.1639999999999903
-425.5265195363578	0.07633333333333818
-425.9898798877459	0.10100000000000971
-426.45326252866096	0.06466666666667152
-426.9166674607163	0.13199999999999515
-427.3800946855101	0.23566666666665698
-427.84354420465553	0.10866666666666182
-428.3070160197638	0.12766666666667636
-428.770510132446	0.259333333333343
-429.2340265443025	0.21
-429.69756525694646	0.12800000000000486
-430.16112627199124	0.13
-430.62470959104576	0.15233333333332363
-431.08831521571466	0.15066666666665696
-431.5519431476091	0.20033333333332848
-432.0155933883424	0.1860000000000097
-432.4792659395277	0.175
-432.9429608027654	0.16033333333332847
-433.4066779796732	0.2260000000000097
-433.87041747185987	0.2263333333333382
-434.334179280941	0.30266666666667635
-434.7979634085168	0.2039999999999903
-435.26176985620714	0.1939999999999903
-435.72559862562093	0.22199999999999515
-436.1894497183737	0.19933333333334302
-436.6533231360678	0.22366666666666182
-437.1172188803209	0.19766666666667637
-437.5811369527441	0.16366666666666183
-438.0450773549529	0.034333333333343034
-438.5090400885541	0.07966666666667152
-438.973025155161	0.12199999999999515
-439.43703255638684	0.17933333333334303
-439.90106229384924	0.11633333333333819
-440.36511436915504	0.11199999999999515
-440.82918878391536	0.19766666666667637
-441.29328553975	0.125
-441.7574046382722	0.1089999999999903
-442.2215460810888	0.09133333333333818
-442.68570986981524	0.18266666666667636
-443.1498960060691	0.16699999999999515
-443.614104491466	0.17466666666667152
-444.07833532761254	0.17533333333332848
-444.5425885161265	0.15199999999999514
-445.00686405862325	0.1460000000000097
-445.4711619567226	0.21066666666665695
-445.935482212027	0.24
-446.3998248261584	0.19
-446.8641898007302	0.20566666666665698
-447.3285771373643	0.1710000000000097
-447.79298683766524	0.20166666666666666
-448.25741890325503	0.12733333333332364
-448.72187333574703	0.09300000000000486
-449.18635013675885	0.1363333333333382
-449.65084930790806	0.10533333333332848
-450.11537085080585	0.11566666666665697
-450.5799147670698	0.0003333333333284827
-451.04448105831756	0.05466666666667152
-451.5090697261711	0.06766666666667637
-451.97368077223723	0.08300000000000485
-452.4383141981357	0.14333333333333334
-452.90297000548634	0.10800000000000486
-453.36764819590894	0.16300000000000486
-453.8323487710146	0.24066666666665695
-454.29707173242315	0.07
-454.7618170817522	0.20199999999999516
-455.22658482062377	0.008999999999990299
-455.6913749506467	0.18866666666666182
-456.15618747344746	0.14166666666666666
-456.6210223906392	0.13233333333332364
-457.0858797038461	0.23066666666665697
-457.55075941468147	0.19833333333333333
-458.01566152476505	0.2103333333333285
-458.48058603571457	0.18766666666667636
-458.9455329491584	0.1896666666666715
-459.41050226670126	0.18866666666666182
-459.8754939899715	0.26166666666666666
-460.3405081205869	0.20433333333334303
-460.80554466017145	0.2439999999999903
-461.27060361033637	0.15066666666665696
-461.7356849727057	0.16533333333332847
-462.2007887489016	0.19166666666666668
-462.66591494054575	0.15699999999999514
-463.1310635492517	0.21633333333333818
-463.5962345766456	0.28766666666667634
-464.0614280243451	0.19766666666667637
-464.5266438939766	0.25466666666667154
-464.9918821871533	0.2689999999999903
-465.45714290550154	0.20199999999999516
-465.92242605064325	0.1860000000000097
-466.3877316242004	0.17566666666665698
-466.8530596277885	0.31766666666667637
-467.318410063036	0.20833333333333334
-467.7837829315627	0.14166666666666666
-468.24917823499277	0.2086666666666618
-468.71459597494373	0.19933333333334302
-469.18003615304195	0.16666666666666666
-469.64549877090946	0.16666666666666666
-470.1109838301681	0.2619999999999951
-470.57649133244644	0.17233333333332362
-471.0420212793577	0.15233333333332363
-471.5075736725304	0.28066666666665696
-471.9731485135887	0.1860000000000097
-472.4387458041588	0.18800000000000486
-472.90436554585847	0.17666666666666667
-473.37000774031173	0.21266666666667636
-473.83567238914713	0.1960000000000097
-474.3013594939909	0.21566666666665696
-474.7670690564607	0.17199999999999516
-475.2328010781829	0.2260000000000097
-475.6985555607837	0.17266666666667638
-476.16433250588943	0.31166666666666665
-476.6301319151221	0.3136666666666618
-477.0959537901058	0.2763333333333382
-477.561798132469	0.2633333333333333
-478.0276649438424	0.3296666666666715
-478.49355422583926	0.24199999999999514
-478.9594659800923	0.2513333333333382
-479.4254002082258	0.29633333333333817
-479.89135691187255	0.3
-480.3573360926479	0.33300000000000485
-480.8233377521847	0.3896666666666715
-481.28936189210935	0.3363333333333382
-481.7554085140502	0.2846666666666715
-482.22147761962714	0.3160000000000097
-482.6875692104729	0.439333333333343
-483.1536832882138	0.39433333333334303
-483.61981985448057	0.4633333333333333
-484.08597891089505	0.3489999999999903
-484.5521604590836	0.3539999999999903
-485.0183645006812	0.3416666666666667
-485.48459103731415	0.37233333333332364
-485.9508400706044	0.2653333333333285
-486.4171116021848	0.32366666666666183
-486.88340563368376	0.3680000000000048
-487.3497221667342	0.3219999999999951
-487.81606120295794	0.24766666666667636
-488.28242274398355	0.3660000000000097
-488.74880679144593	0.4260000000000097
-489.21521334697366	0.3536666666666618
-489.6816424121908	0.4013333333333382
-490.14809398872796	0.39733333333332366
-490.6145680782202	0.38466666666667154
-491.08106468229596	0.5436666666666619
-491.54758380257937	0.5480000000000048
-492.0141254407076	0.5353333333333284
-492.48068959830687	0.525666666666657
-492.94727627700786	0.6293333333333431
-493.41388547844775	0.4710000000000097
-493.8805172042485	0.5489999999999903
-494.34717145604293	0.655666666666657
-494.813848235466	0.7110000000000097
-495.2805475441505	0.7660000000000097
-495.74726938372055	0.7119999999999952
-496.2140137558112	0.7766666666666666
-496.68078066205516	0.8426666666666763
-497.1475701040875	0.8903333333333285
-497.6143820835323	1.0130000000000048
-498.0812166020267	1.0963333333333383
-498.54807366120355	1.185
-499.0149532626978	1.1680000000000048
-499.48185540813364	1.274333333333343
-499.94878009915027	1.3769999999999951
-500.4157273373806	1.5289999999999904
-500.8826971244617	1.6623333333333237
-501.3496894620156	1.8519999999999952
-501.8167043516837	2.0456666666666568
-502.28374179509893	2.2303333333333284
-502.75080179389835	2.476333333333338
-503.21788434970614	2.729333333333343
-503.6849894641659	2.869333333333343
-504.15211713890614	3.214333333333343
-504.6192673755683	3.5696666666666714
-505.0864401757787	4.036666666666667
-505.5536355411745	4.4163333333333386
-506.02085347339505	5.037333333333324
-506.48809397407314	5.465666666666657
-506.9553570448415	6.09899999999999
-507.4226426873352	6.533666666666662
-507.8899509031935	7.03899999999999
-508.35728169405576	7.491000000000009
-508.8246350615461	7.5836666666666614
-509.2920110073081	7.680333333333328
-509.7594095329768	7.598333333333334
-510.22683064019367	7.188666666666662
-510.6942743305851	6.93899999999999
-511.1617406057946	6.584333333333343
-511.62922946745715	6.010333333333328
-512.0967409172122	5.4460000000000095
-512.5642749566924	4.752333333333324
-513.0318315875372	4.2683333333333335
-513.4994108113838	3.893666666666662
-513.9670126298691	3.405
-514.4346370446391	2.98899999999999
-514.9022840573178	2.7439999999999904
-515.3699536695513	2.495666666666657
-515.8376458829763	2.1853333333333285
-516.3053606992369	2.0210000000000097
-516.7730981199612	1.7410000000000097
-517.2408581467931	1.6273333333333235
-517.7086407813741	1.491999999999995
-518.1764460253412	1.3560000000000096
-518.6442738803315	1.1863333333333381
-519.1121243479846	1.1686666666666619
-519.5799974299438	0.9530000000000048
-520.0478931278486	0.9713333333333382
-520.5158114433318	0.8636666666666618
-520.9837523780393	0.8436666666666618
-521.4517159336124	0.7443333333333431
-521.9197021116904	0.734333333333343
-522.3877109139106	0.6436666666666618
-522.8557423419145	0.6636666666666619
-523.3237963973435	0.5723333333333236
-523.7918730818434	0.5403333333333284
-524.2599723970492	0.5203333333333284
-524.7280943446024	0.5526666666666764
-525.1962389261444	0.4823333333333236
-525.6644061433254	0.535666666666657
-526.132595997774	0.4639999999999903
-526.6008084911402	0.4596666666666715
-527.0690436250634	0.39300000000000485
-527.5373014011916	0.3853333333333285
-528.0055818211553	0.4766666666666667
-528.4738848866069	0.3836666666666618
-528.9422105991858	0.35833333333333334
-529.4105589605377	0.300666666666657
-529.8789299722998	0.31199999999999517
-530.3473236361201	0.3439999999999903
-530.8157399536378	0.3713333333333382
-531.2841789265054	0.2626666666666764
-531.7526405563557	0.1889999999999903
-532.2211248448366	0.30233333333332363
-532.6896317935916	0.2336666666666618
-533.1581614042711	0.23233333333332362
-533.6267136785101	0.19833333333333333
-534.0952886179564	0.22866666666666183
-534.5638862242538	0.28933333333334305
-535.0325064990544	0.35
-535.5011494439935	0.27933333333334304
-535.9698150607188	0.2886666666666618
-536.4385033508763	0.24866666666666182
-536.9072143161118	0.22733333333332365
-537.3759479580754	0.2519999999999952
-537.8447042784043	0.23800000000000485
-538.3134832787485	0.2089999999999903
-538.782284960754	0.2989999999999903
-539.251109326071	0.24199999999999514
-539.7199563763363	0.21733333333332364
-540.1888261132026	0.15933333333334304
-540.6577185383156	0.22133333333333818
-541.1266336533254	0.1713333333333382
-541.5955714598736	0.11766666666667637
-542.0645319596101	0.10533333333332848
-542.533515154181	0.21666666666666667
-543.0025210452385	0.135
-543.471549634422	0.07
-543.9406009233837	0.12699999999999514
-544.4096749137716	0.08866666666666181
-544.8787716072381	0.05699999999999515
-545.3478910054247	0.11966666666667151
-545.8170331099792	0.1736666666666618
-546.2861979225542	0.1260000000000097
-546.7553854448018	0.06866666666666181
-547.2245956783636	0.07733333333332364
-547.6938286248898	0.09
-548.1630842860326	0.10300000000000485
-548.6323626634443	0.07766666666667636
-549.1016637587664	0.125
-549.5709875736515	0.1360000000000097
-550.0403341097515	0.10300000000000485
-550.5097033687211	0.1410000000000097
-550.9790953521997	0.17433333333334303
-551.4485100618417	0.17433333333334303
-551.9179474992993	0.20633333333333817
-552.3874076662273	0.16
-552.8568905642691	0.10199999999999515
-553.326396195077	0.18733333333332364
-553.7959245603034	0.1639999999999903
-554.2654756616051	0.15333333333333332
-554.7350495006234	0.1360000000000097
-555.2046460790151	0.13733333333332362
-555.6742653984302	0.0989999999999903
-556.1439074605275	0.01699999999999515
-556.6135722669509	0.06733333333332363
-557.0832598193547	-0.002333333333323632
-557.5529701193913	0.020666666666656966
-558.0227031687151	0.02266666666667637
-558.4924589689829	0.04566666666665697
-558.9622375218382	0.003999999999990299
-559.4320388289378	0.17266666666667638
-559.901862891936	-0.03733333333332363
-560.3717097124897	0.08833333333333333
-560.8415792922447	-0.001333333333338184
-561.3114716328574	0.0489999999999903
-561.7813867359847	0.08266666666667637
-562.2513246032833	0.11266666666667637
-562.7212852363965	0.18233333333332363
-563.1912686369857	0.049666666666671515
-563.6612748067051	0.15366666666666182
-564.1313037472138	0.05566666666665696
-564.6013554601575	0.0660000000000097
-565.0714299471971	0.11666666666666667
-565.5415272099829	0.045
-566.0116472501801	-0.024333333333343036
-566.4817900694323	0.09266666666667636
-566.9519556694008	0.10766666666667636
-567.4221440517421	0.12833333333333333
-567.8923552181149	0.10533333333332848
-568.3625891701673	0.2210000000000097
-568.8328459095582	0.12666666666666668
-569.3031254379463	0.08766666666667637
-569.7734277569925	0.17166666666666666
-570.2437528683452	0.13366666666666183
-570.7141007736628	0.06733333333332363
-571.1844714746044	0.049333333333343034
-571.6548649728329	0.09133333333333818
-572.1252812699944	0.07033333333332849
-572.5957203677541	0.18066666666665696
-573.0661822677644	0.0539999999999903
-573.5366669716926	0.13466666666667151
-574.007174481187	0.15800000000000486
-574.4777047979082	0.033666666666661814
-574.9482579235155	0.06733333333332363
-575.4188338596717	0.075
-575.889432608027	0.11033333333332848
-576.360054170247	0.08
-576.8306985479859	0.08233333333332363
-577.3013657429113	0.1139999999999903
-577.7720557566712	0.11466666666667152
-578.242768590931	0.0889999999999903
-578.7135042473494	0.14199999999999516
-579.1842627275896	0.15800000000000486
-579.6550440333061	0.11766666666667637
-580.1258481661622	0.12733333333332364
-580.5966751278165	0.11166666666666666
-581.0675249199302	0.08433333333334303
-581.5383975441686	0.034666666666671515
-582.0092930021859	0.06466666666667152
-582.4802112956436	0.06533333333332848
-582.9511524262044	0.02266666666667637
-583.422116395534	0.0439999999999903
-583.8931032052844	0.03266666666667637
-584.3641128571234	0.05633333333333818
-584.8351453527096	0.14233333333332363
-585.3062006937128	0.035666666666656965
-585.7772788817853	0.11566666666665697
-586.2483799185924	0.06433333333334304
-586.7195038057973	0.045
-587.1906505450675	0.06533333333332848
-587.6618201380553	0.07933333333334304
-588.1330125864282	0.029333333333343033
-588.6042278918516	0.08300000000000485
-589.0754660559908	0.09933333333334303
-589.5467270805024	0.05966666666667152
-590.0180109670519	0.17066666666665697
-590.4893177173043	0.13666666666666666
-590.9606473329275	0.16266666666667637
-591.4319998155779	0.0910000000000097
-591.9033751669209	0.035666666666656965
-592.3747733886241	0.06666666666666667
-592.8461944823549	0.09366666666666182
-593.3176384497699	0.07133333333333819
-593.7891052925389	0.04733333333332363
-594.2605950123251	0.07566666666665696
-594.732107610798	0.07366666666666181
-595.2036430896144	0.07466666666667152
-595.6752014504461	0.09199999999999516
-596.1467826949563	0.12666666666666668
-596.6183868248166	0.13533333333332848
-597.090013841684	0.12199999999999515
-597.5616637472281	0.02699999999999515
-598.0333365431163	0.04866666666666181
-598.5050322310183	0.04466666666667152
-598.9767508125929	0.07233333333332363
-599.4484922895119	0.05366666666666182
-599.9202566634386	0.07266666666667637
-600.3920439360492	0.052333333333323635
-600.863854108998	0.04466666666667152
-601.3356871839613	0.004666666666671517
-601.8075431626023	-0.05733333333332363
-602.2794220465906	0.04833333333333333
-602.7513238376002	-0.0360000000000097
-603.2232485372857	-0.09233333333332364
-603.6951961473254	0.0539999999999903
-604.1671666693824	0.12133333333333818
-604.6391601051329	0.12333333333333334
-605.1111764562378	0.023666666666661815
-605.583215724367	0.10800000000000486
-606.05527791119	0.015
-606.5273630183831	0.07733333333332364
-606.999471047605	0.12800000000000486
-607.4716020005297	0.05966666666667152
-607.943755878825	0.13333333333333333
-608.4159326841688	0.08600000000000971
-608.8881324182223	0.08033333333332848
-609.3603550826554	0.013000000000004851
-609.8326006791439	0.13233333333332364
-610.3048692093575	0.22866666666666183
-610.7771606749619	0.08933333333334303
-611.2494750776308	0.018666666666661814
-611.721812419036	0.13766666666667637
-612.1941727008518	0.0030000000000048508
-612.6665559247411	0.1489999999999903
-613.1389620923824	0.08733333333332363
-613.611391205443	0.1460000000000097
-614.0838432656016	0.08800000000000485
-614.5563182745187	0.12033333333332848
-615.0288162338753	0.08433333333334303
-615.5013371453408	0.0889999999999903
-615.9738810105914	0.09199999999999516
-616.4464478312925	0.12666666666666668
-616.9190376091203	0.07933333333334304
-617.3916503457488	0.1
-617.864286042854	0.1260000000000097
-618.3369447021014	0.024666666666671517
-618.8096263251693	0.04666666666666667
-619.2823309137297	0.03266666666667637
-619.7550584694607	0.085
-620.2278089940298	0.07866666666666182
-620.7005824891135	0.08
-621.1733789563854	0.18233333333332363
-621.6461983975241	0.1310000000000097
-622.1190408141993	0.17833333333333334
-622.5919062080848	0.22333333333333333
-623.0647945808612	0.13966666666667152
-623.5377059342026	0.14533333333332848
-624.0106402697763	0.06066666666665697
-624.4835975892653	0.11533333333332849
-624.9565778943412	0.11733333333332363
-625.4295811866824	0.05633333333333818
-625.9026074679693	0.08033333333332848
-626.3756567398653	0.02266666666667637
-626.8487290040574	0.08199999999999515
-627.321824262215	0.08933333333334303
-627.7949425160232	0.11800000000000485
-628.2680837671494	0.043333333333333335
-628.7412480172742	0.10766666666667636
-629.2144352680758	0.17833333333333334
-629.6876455212326	0.13966666666667152
-630.1608787784166	0.08166666666666667
-630.6341350413081	0.06466666666667152
-631.1074143115856	0.1539999999999903
-631.5807165909295	0.14
-632.0540418810094	0.07133333333333819
-632.5273901835083	0.10166666666666667
-633.0007615001064	0.13033333333332847
-633.4741558324843	0.15566666666665696
-633.9475731823117	0.09633333333333818
-634.4210135512734	0.11433333333334303
-634.8944769410457	0.20766666666667638
-635.3679633533155	0.15633333333333818
-635.8414727897504	0.11300000000000485
-636.315005252035	0.03133333333333818
-636.7885607418502	0.08699999999999515
-637.2621392608784	0.06266666666667636
-637.7357408107915	0.11733333333332363
-638.2093653932745	0.15433333333334304
-638.6830130100077	0.09733333333332363
-639.1566836626739	0.0539999999999903
-639.6303773529492	0.07066666666665697
-640.104094082512	0.06733333333332363
-640.5778338530494	0.11366666666666182
-641.0515966662439	-0.012333333333323633
-641.5253825237696	0.12666666666666668
-641.9991914273114	0.08533333333332849
-642.4730233785497	0.1160000000000097
-642.9468783791716	0.16800000000000484
-643.4207564308512	0.15300000000000485
-643.894657535273	0.14
-644.3685816941202	0.105
-644.8425289090794	0.10933333333334304
-645.3164991818247	0.018333333333333333
-645.7904925140433	0.095
-646.2645089074176	0.13966666666667152
-646.7385483636306	0.14199999999999516
-647.2126108843712	0.05333333333333334
-647.6866964713114	0.008333333333333333
-648.1608051261403	0.08633333333333819
-648.6349368505428	0.11166666666666666
-649.1090916462059	0.11966666666667151
-649.5832695148059	0.017333333333323632
-650.0574704580297	0.11066666666665696
-650.5316944775642	0.085
-651.0059415750944	0.19333333333333333
-651.4802117522987	0.0910000000000097
-651.9545050108684	0.12666666666666668
-652.4288213524839	0.08233333333332363
-652.9031607788367	0.04866666666666181
-653.377523291605	-0.03333333333333333
-653.851908892476	0.06466666666667152
-654.3263175831366	0.09766666666667637
-654.8007493652782	0.05300000000000485
-655.275204240577	0.13433333333334305
-655.7496822107221	0.1389999999999903
-656.2241832774027	0.06066666666665697
-656.6987074423081	0.049333333333343034
-657.1732547071144	0.045
-657.647825073515	0.10366666666666181
-658.1224185431972	-0.05266666666667637
-658.5970351178521	0.05566666666665696
-659.071674799156	0.0689999999999903
-659.5463375888046	0.045
-660.0210234884827	-0.033666666666661814
-660.4957324998816	0.18
-660.970464624684	-0.024333333333343036
-661.4452198645815	-0.025333333333328482
-661.9199982212587	-0.03666666666666667
-662.3947996964134	0.036333333333338186
-662.8696242917221	0.10933333333334304
-663.3444720088801	0.07166666666666667
-663.8193428495747	0.13699999999999515
-664.2942368154993	0.07199999999999515
-664.7691539083344	0.1889999999999903
-665.2440941297757	0.16266666666667637
-665.7190574815126	0.06333333333333334
-666.1940439652361	0.12800000000000486
-666.6690535826314	0.025333333333328482
-667.1440863353895	0.14266666666667638
-667.6191422252042	0.09066666666665696
-668.0942212537668	0.1253333333333285
-668.5693234227599	0.06733333333332363
-669.0444487338814	0.08266666666667637
-669.5195971888182	0.021666666666666667
-669.9947687892642	0.12300000000000486
-670.4699635369146	0.09866666666666181
-670.9451814334525	0.17166666666666666
-671.4204224805712	0.165
-671.8956866799642	0.0560000000000097
-672.3709740333295	0.10233333333332363
-672.8462845423476	-0.02
-673.3216182087161	0.04199999999999515
-673.7969750341267	0.0389999999999903
-674.2723550202793	0.024333333333343036
-674.7477581688544	-0.0339999999999903
-675.2231844815498	-0.03966666666667152
-675.6986339600613	0.016666666666666666
-676.1741066060845	0.004666666666671517
-676.6496024213021	0.1039999999999903
-677.1251214074143	0.06
-677.6006635661165	0.07466666666667152
-678.0762288991046	-0.016666666666666666
-678.5518174080635	0.05800000000000485
-679.0274290946908	-0.09433333333334304
-679.5030639606846	-0.024333333333343036
-679.9787220077426	-0.03733333333332363
-680.4544032375497	0.016666666666666666
-680.9301076518038	0.06966666666667151
-681.4058352522029	0.05433333333334303
-681.8815860404445	0.08366666666666181
-682.3573600182182	0.008666666666661816
-682.8331571872193	0.021333333333338183
-683.308977549148	-0.01
-683.7848211057002	0.017333333333323632
-684.2606878585669	0.07800000000000486
-684.7365778094462	0.10033333333332849
-685.2124909600358	0.05466666666667152
-685.688427312038	0.007666666666676368
-686.1643868671355	0.07566666666665696
-686.640369627037	0.029333333333343033
-687.1163755934316	-0.06433333333334304
-687.592404768028	-0.03866666666666182
-688.0684571525112	0.010333333333328483
-688.5445327485811	0.016333333333338185
-689.0206315579399	0.07033333333332849
-689.4967535822876	-0.028666666666661816
-689.9728988233136	0.085
-690.4490672827199	0.06933333333334303
-690.9252589622043	0.11366666666666182
-691.4014738634692	0.11199999999999515
-691.8777119882124	0.11566666666665697
-692.3539733381273	0.1
-692.8302579149183	0.06866666666666181
-693.3065657202812	0.04633333333333818
-693.782896755916	0.06699999999999515
-694.2592510235271	0.034666666666671515
-694.7356285248057	0.04533333333332848
-695.2120292614607	0.0
-695.6884532351831	0.09266666666667636
-696.1649004476822	0.0960000000000097
-696.6413709006488	0.05
-697.1178645957918	0.12800000000000486
-697.5943815348027	0.024666666666671517
-698.0709217193943	-0.0033333333333333335
-698.547485151258	0.02199999999999515
-699.0240718320983	0.021666666666666667
-699.5006817636153	-0.007333333333323632
-699.977314947513	-0.00800000000000485
-700.4539713854917	-0.04800000000000485
-700.9306510792559	0.05966666666667152
-701.4073540305009	0.026333333333338184
-701.8840802409356	0.08
-702.3608297122558	0.05
-702.8376024461702	0.0539999999999903
-703.3143984443786	0.07166666666666667
-703.7912177085856	0.008666666666661816
-704.2680602404868	0.024333333333343036
-704.7449260417994	0.02199999999999515
-705.221815114215	-0.029666666666671518
-705.6987274594424	-0.057666666666676365
-706.1756630791813	-0.10199999999999515
-706.6526219751405	0.004333333333343035
-707.1296041490159	-0.03
-707.6066096025246	-0.11933333333334303
-708.0836383373583	0.04566666666665697
-708.5606903552296	0.018666666666661814
-709.0377656578345	0.12766666666667636
-709.5148642468903	0.04233333333332363
-709.9919861240926	-0.015333333333328482
-710.4691312911503	0.11199999999999515
-710.9462997497633	0.05533333333332848
-711.4234915016445	0.06233333333332363
-711.9007065484986	0.052333333333323635
-712.3779448920254	0.05633333333333818
-712.855206533938	-0.02800000000000485
-713.3324914759364	-0.03733333333332363
-713.8097997197294	-0.008999999999990299
-714.2871312670255	0.06666666666666667
-714.7644861195292	-0.013666666666661815
-715.2418642789494	0.03766666666667637
-715.71926574699	0.06199999999999515
-716.19669052536	-0.029666666666671518
-716.6741386157682	0.07433333333334304
-717.1516100199144	-0.025666666666656967
-717.6291047395205	0.015333333333328482
-718.1066227762776	0.017666666666676368
-718.5841641319076	0.006333333333338184
-719.0617288081106	0.049666666666671515
-719.5393168065996	0.08600000000000971
-720.0169281290788	0.060333333333328486
-720.4945627772613	-0.017333333333323632
-720.9722207528516	-0.03133333333333818
-721.4499020575627	0.04633333333333818
-721.9276066930988	-0.0460000000000097
-722.4053346611774	0.03800000000000485
-722.8830859634986	0.010333333333328483
-723.3608606017754	0.019666666666671516
-723.8386585777207	-0.00800000000000485
-724.3164798930433	0.11966666666667151
-724.7943245494477	0.04066666666665696
-725.272192548651	0.14300000000000485
-725.7500838923621	0.04
-726.2279985822896	0.13933333333334302
-726.7059366201466	0.0760000000000097
-727.1838980076462	0.07
-727.6618827464928	0.03166666666666667
-728.1398908384035	0.0060000000000097016
-728.6179222850873	0.0910000000000097
-729.095977088257	-0.011000000000009702
-729.5740552496214	0.01699999999999515
-730.052156770898	0.044333333333343036
-730.5302816537911	-0.006666666666666667
-731.0084299000223	0.04633333333333818
-731.4866015113004	0.06066666666665697
-731.964796489334	0.029333333333343033
-732.4430148358406	0.06666666666666667
-732.9212565525332	0.11533333333332849
-733.3995216411205	0.06466666666667152
-733.8778101033242	0.04633333333333818
-734.3561219408443	0.007666666666676368
-734.8344571554113	0.07233333333332363
-735.3128157487251	0.09566666666665696
-735.7911977225033	0.10166666666666667
-736.2696030784673	-0.0033333333333333335
-736.7480318183216	0.11366666666666182
-737.2264839437879	0.043666666666661816
-737.7049594565793	-0.007333333333323632
-738.1834583584089	-0.021000000000009702
-738.6619806509894	-0.024666666666671517
-739.1405263360386	0.06066666666665697
-739.6190954152737	0.07633333333333818
-740.0976878904078	-0.003999999999990299
-740.5763037631581	0.1139999999999903
-741.054943035242	0.11766666666667637
-741.5336057083684	0.10199999999999515
-742.0122917842632	0.0033333333333333335
-742.4910012646309	0.13666666666666666
-742.9697341512017	0.04699999999999515
-743.44849044568	0.08666666666666667
-743.927270149792	-0.0410000000000097
-744.4060732652506	-0.025
-744.8848997937732	0.025333333333328482
-745.3637497370773	0.0839999999999903
-745.8426230968801	0.0360000000000097
-746.3215198748991	-0.001333333333338184
-746.8004400728515	0.035
-747.2793836924593	0.04633333333333818
-747.7583507354353	-0.03766666666667637
-748.2373412035014	0.013333333333333334
-748.716355098379	0.01
-749.1953924217772	0.0689999999999903
-749.6744531754217	0.03199999999999515
-750.1535373610302	0.04
-750.6326449803285	0.08033333333332848
-751.111776035021	0.03233333333332363
-751.5909305268425	-0.014333333333343034
-752.0701084575018	-0.07800000000000486
-752.5493098287246	-0.043000000000004854
-753.0285346422287	-0.05433333333334303
-753.5077828997398	0.019333333333343035
-753.987054602967	0.08800000000000485
-754.4663497536402	0.10033333333332849
-754.9456683534771	0.05433333333334303
-755.4250104042037	0.0889999999999903
-755.9043759075286	0.14733333333332363
-756.3837648651867	0.0789999999999903
-756.8631772788864	0.11533333333332849
-757.3426131503628	0.10866666666666182
-757.8220724813286	-0.028666666666661816
-758.3015552735102	0.06933333333334303
-758.7810615286247	0.07966666666667152
-759.2605912483939	0.02199999999999515
-759.7401444345481	0.08333333333333333
-760.2197210888049	-0.006333333333338184
-760.6993212128901	0.022333333333323633
-761.1789448085212	0.033666666666661814
-761.6585918774243	0.02199999999999515
-762.1382624213211	0.08
-762.6179564419375	0.11466666666667152
-763.0976739409954	0.05733333333332363
-763.5774149202207	0.001333333333338184
-764.0571793813351	0.04699999999999515
-764.5369673260649	0.07800000000000486
-765.0167787561315	0.05
-765.4966136732611	0.07366666666666181
-765.9764720791754	0.03333333333333333
-766.4563539756049	0.0939999999999903
-766.9362593642668	0.0839999999999903
-767.4161882468959	0.11533333333332849
-767.8961406252051	0.05466666666667152
-768.3761165009338	0.05300000000000485
-768.856115875799	0.15866666666666182
-769.336138751527	0.10699999999999515
-769.8161851298437	-0.015666666666656965
-770.2962550124796	0.11
-770.7763484011564	0.09366666666666182
-771.2564652976043	0.09133333333333818
-771.7366057035454	0.04766666666667637
-772.2167696207097	-0.044333333333343036
-772.6969570508234	0.05300000000000485
-773.1771679956125	0.01199999999999515
-773.6574024568075	-0.015666666666656965
-774.1376604361301	0.0810000000000097
-774.6179419353149	-0.0003333333333284827
-775.0982469560837	0.09266666666667636
-775.578575500167	0.0019999999999951493
-776.0589275692992	-0.0030000000000048508
-776.5393031651936	0.08033333333332848
-777.0197022895935	0.10133333333333819
-777.5001249442207	-0.03233333333332363
-777.9805711308056	-0.012333333333323633
-778.4610408510741	0.0489999999999903
-778.941534106761	-0.0016666666666666668
-779.422050899588	0.006333333333338184
-779.9025912312899	-0.03166666666666667
-780.383155103597	-0.017666666666676368
-780.8637425182397	0.033666666666661814
-781.3443534769441	0.005
-781.8249879814406	0.03800000000000485
-782.3056460334637	0.05566666666665696
-782.7863276347398	-0.0339999999999903
-783.2670327870034	-0.0239999999999903
-783.7477614919806	0.15066666666665696
-784.2285137514104	0.06966666666667151
-784.7092895670147	0.06233333333332363
-785.190088940528	0.013666666666661815
-785.6709118736851	0.04699999999999515
-786.1517583682121	0.07566666666665696
-786.632628425848	0.0539999999999903
-787.1135220483189	0.019666666666671516
-787.5944392373596	0.05466666666667152
-788.0753799947003	0.05699999999999515
-788.5563443220758	0.10366666666666181
-789.0373322212208	0.09699999999999515
-789.5183436938614	0.025666666666656967
-789.9993787417368	0.07633333333333818
-790.4804373665771	0.09800000000000485
-790.9615195701215	0.08733333333332363
-791.4426253540961	0.10533333333332848
-791.9237547202398	0.07466666666667152
-792.4049076702788	0.06433333333334304
-792.8860842059564	-0.0360000000000097
-793.3672843290032	0.12233333333332364
-793.8485080411537	-0.051333333333338185
-794.3297553441382	0.09666666666666666
-794.8110262397004	0.06933333333334303
-795.2923207295705	0.027666666666676366
-795.7736388154832	0.006666666666666667
-796.2549804991734	0.07166666666666667
-796.7363457823756	0.019333333333343035
-797.217734666829	0.025666666666656967
-797.6991471542682	0.04800000000000485
-798.180583246428	0.011666666666666667
-798.6620429450433	0.06266666666667636
-799.1435262518528	-0.002333333333323632
-799.6250331685959	0.004666666666671517
-800.1065636969985	0.11433333333334303
-800.5881178388125	-0.0010000000000097012
-801.06969559576	0.08
-801.5512969695884	0.04699999999999515
-802.0329219620326	0.15
-802.5145705748272	0.0789999999999903
-802.9962428097114	0.11199999999999515
-803.4779386684241	0.07766666666667636
-803.9596581527046	0.04033333333332848
-804.4414012642874	0.08800000000000485
-804.9231680049115	0.05699999999999515
-805.4049583763206	-0.06333333333333334
-805.8867723802448	-0.02033333333332848
-806.368610018432	0.0310000000000097
-806.8504712926126	0.04866666666666181
-807.3323562045299	0.014666666666671517
-807.8142647559273	0.042666666666676366
-808.2961969485352	0.13233333333332364
-808.7781527841014	0.11133333333333818
-809.2601322643649	0.018333333333333333
-809.7421353910604	-0.011000000000009702
-810.2241621659313	-0.0389999999999903
-810.7062125907211	-0.009666666666671517
-811.1882866671644	0.050666666666656965
-811.6703843970047	-0.016666666666666666
-812.1525057819853	-0.043666666666661816
-812.634650823841	-0.05633333333333818
-813.1168195243196	-0.010333333333328483
-813.5990118851643	-0.03266666666667637
-814.0812279081055	0.015333333333328482
-814.5634675948954	-0.002666666666676368
-815.0457309472688	0.025
-815.5280179669776	0.0460000000000097
-816.0103286557522	0.006999999999995149
-816.4926630153448	0.025
-816.9750210474899	0.030333333333328483
-817.4574027539397	0.02666666666666667
-817.9398081364247	0.023333333333333334
-818.4222371967012	0.0439999999999903
-818.9046899365038	0.03966666666667152
-819.3871663575804	-0.04
-819.8696664616701	0.18666666666666668
