-194.34305441739858	-0.14333333333333334
-194.79536075947718	0.07666666666666666
-195.24768859823178	0.10866666666666182
-195.70003793519538	0.08600000000000971
-196.15240877190544	0.14733333333332363
-196.60480110989712	0.04800000000000485
-197.0572149506927	0.057666666666676365
-197.50965029583173	0.043333333333333335
-197.96210714684943	-0.011000000000009702
-198.41458550527886	0.10733333333332364
-198.86708537264877	-0.026000000000009703
-199.31960675049436	-0.02666666666666667
-199.77214964035304	-0.07199999999999515
-200.22471404376003	0.0460000000000097
-200.6772999622419	-0.005
-201.12990739733607	0.03800000000000485
-201.58253635057773	0.05199999999999515
-202.03518682350864	0.09
-202.48785881765102	-0.0060000000000097016
-202.9405523345444	-0.008333333333333333
-203.39326737572623	0.013666666666661815
-203.8460039427339	0.035666666666656965
-204.29876203709608	0.06733333333332363
-204.75154166035023	0.1253333333333285
-205.20434281403158	0.03
-205.657165499684	0.13333333333333333
-206.1100097188319	0.09033333333332848
-206.5628754730148	0.10533333333332848
-207.01576276377017	0.2
-207.4686715926397	0.11333333333333333
-207.92160196115	0.17533333333332848
-208.37455387084057	0.06233333333332363
-208.82752732325102	0.10699999999999515
-209.2805223199209	0.004333333333343035
-209.73353886238107	0.07133333333333819
-210.186576952169	0.0739999999999903
-210.6396365908242	0.003999999999990299
-211.09271777988843	-0.01199999999999515
-211.5458205208926	0.004666666666671517
-211.99894481537407	-0.11133333333333818
-212.45209066487462	-0.03133333333333818
-212.90525807093158	-0.028333333333333332
-213.35844703508894	-0.0410000000000097
-213.81165755887318	-0.03699999999999515
-214.26488964382827	0.0019999999999951493
-214.7181432914937	-0.004666666666671517
-215.1714185034113	0.051000000000009704
-215.62471528111405	0.00800000000000485
-216.07803362614374	0.001333333333338184
-216.53137354003772	-0.05566666666665696
-216.9847350243421	-0.036333333333338186
-217.43811808058777	-0.0689999999999903
-217.8915227103186	-0.03699999999999515
-218.3449489150742	0.0030000000000048508
-218.79839669639847	0.00800000000000485
-219.2518660558223	0.10033333333332849
-219.7053569948917	0.0789999999999903
-220.15886951514634	0.03699999999999515
-220.61240361813222	-0.0389999999999903
-221.06595930538026	-0.03666666666666667
-221.51953657843652	0.075
-221.9731354388406	0.03800000000000485
-222.4267558881385	0.08333333333333333
-222.88039792786336	-0.07666666666666666
-223.3340615595612	0.005666666666656966
-223.78774678477382	-0.006666666666666667
-224.24145360504505	-0.021666666666666667
-224.69518202191014	-0.0639999999999903
-225.14893203691736	-0.05366666666666182
-225.6027036516041	-0.07766666666667636
-226.05649686752074	-0.0760000000000097
-226.51031168620037	-0.12366666666666182
-226.96414810918904	-0.07066666666665697
-227.41800613802852	-0.1313333333333382
-227.87188577426917	-0.12766666666667636
-228.3257870194441	-0.06433333333334304
-228.77970987510153	0.04566666666665697
-229.23365434278105	-0.02033333333332848
-229.68762042403517	-0.07633333333333818
-230.14160812039702	-0.05300000000000485
-230.59561743341484	-0.0989999999999903
-231.04964836463031	-0.19233333333332364
-231.50370091559606	-0.10533333333332848
-231.9577750878451	-0.14633333333333817
-232.41187088292793	-0.05366666666666182
-232.86598830238617	-0.10133333333333819
-233.32012734776816	-0.06966666666667151
-233.7742880206199	0.026000000000009703
-234.22847032247884	0.03699999999999515
-234.68267425489535	0.02666666666666667
-235.13689981941337	0.04133333333333818
-235.59114701758327	0.03333333333333333
-236.04541585094248	-0.03300000000000485
-236.49970632103924	-0.0003333333333284827
-236.95401842942178	-0.034666666666671515
-237.40835217763833	0.017666666666676368
-237.86270756722848	-0.010666666666656966
-238.31708459974044	-0.026333333333338184
-238.7714832767225	-0.05
-239.22590359972503	0.05
-239.68034557028543	-0.002333333333323632
-240.13480918995845	0.0160000000000097
-240.58929446028583	-0.05533333333332848
-241.04380138282232	0.065
-241.49832995910532	0.036333333333338186
-241.9528801906874	0.017333333333323632
-242.4074520791168	0.14533333333332848
-242.86204562594392	0.11433333333334303
-243.31666083271054	0.03
-243.771297700967	0.013333333333333334
-244.2259562322616	0.09266666666667636
-244.6806364281469	0.04199999999999515
-245.13533829016242	-0.019666666666671516
-245.59006181986516	-0.05433333333334303
-246.04480701879896	0.08833333333333333
-246.4995738885186	0.05566666666665696
-246.95436243056577	0.042666666666676366
-247.40917264649312	0.05699999999999515
-247.8640045378488	-0.02033333333332848
-248.31885810618982	0.08966666666667152
-248.7737333530535	0.06133333333333819
-249.22863027999898	-0.09866666666666181
-249.68354888857013	-0.05300000000000485
-250.13848918032602	-0.08833333333333333
-250.59345115680628	0.07266666666667637
-251.04843481956775	0.01
-251.5034401701587	0.002333333333323632
-251.9584672101339	0.036333333333338186
-252.41351594103722	0.08866666666666181
-252.86858636442344	0.043666666666661816
-253.3236784818451	0.11533333333332849
-253.77879229485046	-0.09166666666666666
-254.23392780499861	-0.059333333333343036
-254.6890850138291	-0.012333333333323633
-255.14426392290102	-0.04466666666667152
-255.59946453376477	0.051666666666666666
-256.0546868479773	0.12199999999999515
-256.50993086708246	0.058333333333333334
-256.96519659263504	-0.024666666666671517
-257.42048402618974	-0.0060000000000097016
-257.8757931693035	0.016333333333338185
-258.3311240235181	-0.045
-258.7864765903947	0.015333333333328482
-259.2418508714817	-0.01199999999999515
-259.6972468683423	-0.051000000000009704
-260.15266458251625	0.007666666666676368
-260.6081040155625	-0.08733333333332363
-261.0635651690359	-0.08
-261.51904804449543	-0.0539999999999903
-261.97455264348514	-0.05800000000000485
-262.43007896756177	-0.013333333333333334
-262.88562701828454	-0.020666666666656966
-263.34119679720595	-0.09366666666666182
-263.7967883058765	-0.02199999999999515
-264.25240154585515	-0.05
-264.70803651869454	0.02733333333332363
-265.16369322595375	0.04699999999999515
-265.619371669181	0.03199999999999515
-266.0750718499376	0.14166666666666666
-266.53079376977394	0.14566666666665695
-266.98653743025557	0.06133333333333819
-267.4423028329264	0.07833333333333334
-267.8980899793455	0.13466666666667151
-268.35389887107203	0.08133333333333818
-268.809729509665	0.0160000000000097
-269.26558189667264	0.03699999999999515
-269.7214560336541	0.1160000000000097
-270.1773519221706	0.08
-270.6332695637768	0.1803333333333285
-271.0892089600255	0.14833333333333334
-271.5451701124777	0.1639999999999903
-272.0011530226883	0.15366666666666182
-272.45715769222284	0.145
-272.91318412262734	0.23733333333332363
-273.3692323154632	0.16866666666666183
-273.8253022722893	0.2036666666666618
-274.28139399466926	0.18233333333332363
-274.73750748415335	0.24566666666665696
-275.19364274230077	0.19199999999999515
-275.6497997706705	0.2339999999999903
-276.10597857082377	0.26066666666665694
-276.56217914432193	0.25300000000000483
-277.0184014927153	0.25166666666666665
-277.47464561756743	0.22233333333332364
-277.9309115204373	0.23066666666665697
-278.38719920288827	0.22833333333333333
-278.84350866647304	0.275
-279.2998399127528	0.35933333333334305
-279.75619294328885	0.37
-280.21256775964673	0.41333333333333333
-280.6689643633747	0.35699999999999515
-281.12538275604055	0.365
-281.5818229392033	0.37166666666666665
-282.03828491442636	0.31766666666667637
-282.4947686832645	0.3403333333333285
-282.951274247279	0.36666666666666664
-283.4078016080354	0.35833333333333334
-283.8643507670972	0.2960000000000097
-284.32092172601693	0.38866666666666183
-284.77751448636013	0.40699999999999514
-285.23412904968814	0.43833333333333335
-285.69076541756647	0.48300000000000487
-286.1474235915499	0.5866666666666667
-286.6041035732062	0.5766666666666667
-287.0608053640923	0.5889999999999903
-287.5175289657802	0.5669999999999952
-287.9742743798204	0.44233333333332364
-288.4310416077828	0.4860000000000097
-288.8878306512286	0.49699999999999517
-289.34464151172347	0.5060000000000097
-289.80147419082215	0.5526666666666764
-290.2583286900945	0.6146666666666715
-290.715205011104	0.5036666666666618
-291.17210315541405	0.5373333333333237
-291.62902312458584	0.6163333333333382
-292.0859649201829	0.5589999999999903
-292.54292854377076	0.5603333333333285
-292.99991399691714	0.6173333333333236
-293.45692128117906	0.574333333333343
-293.91395039812414	0.5786666666666618
-294.3710013493181	0.6119999999999951
-294.8280741363286	0.6236666666666618
-295.2851687607126	0.6533333333333333
-295.74228522404	0.6836666666666619
-296.1994235278743	0.5969999999999952
-296.65658367378524	0.6576666666666764
-297.1137656633321	0.66
-297.57096949808255	0.690666666666657
-298.02819517960216	0.689333333333343
-298.48544270945877	0.6156666666666569
-298.9427120892222	0.5836666666666618
-299.40000332044724	0.6206666666666569
-299.8573164047082	0.5453333333333285
-300.3146513435705	0.485666666666657
-300.7720081386043	0.5033333333333333
-301.22938679136854	0.49
-301.68678730343316	0.5396666666666715
-302.1442096763681	0.555
-302.60165391174115	0.4703333333333285
-303.0591200111157	0.48699999999999516
-303.51660797605945	0.5463333333333382
-303.97411780814025	0.5073333333333236
-304.43164950893447	0.48199999999999515
-304.88920307999683	0.4419999999999952
-305.34677852290173	0.47566666666665697
-305.80437583921673	0.5013333333333382
-306.2619950305163	0.5336666666666618
-306.71963609835933	0.44
-307.1772990443202	0.420666666666657
-307.63498386996446	0.4489999999999903
-308.0926905768685	0.4460000000000097
-308.5504191665915	0.3573333333333236
-309.00816964070987	0.3426666666666764
-309.4659420007891	0.4066666666666667
-309.92373624840354	0.5160000000000097
-310.3815523851166	0.5013333333333382
-310.8393904125025	0.39199999999999513
-311.2972503321312	0.44333333333333336
-311.7551321455748	0.3876666666666764
-312.21303585439887	0.4613333333333382
-312.6709614601733	0.39866666666666184
-313.12890896447465	0.3730000000000048
-313.58687836887265	0.39233333333332365
-314.0448696749352	0.4289999999999903
-314.50288288423224	0.3636666666666618
-314.9609179983401	0.3603333333333285
-315.41897501882875	0.3263333333333382
-315.8770539472681	0.3136666666666618
-316.3351547852281	0.295
-316.79327753428515	0.29266666666667634
-317.2514221960114	0.28633333333333816
-317.70958877197455	0.3036666666666618
-318.16777726374886	0.3333333333333333
-318.62598767290865	0.3686666666666618
-319.08422000102377	0.41333333333333333
-319.54247424967286	0.4583333333333333
-320.00075042041937	0.4386666666666618
-320.45904851484397	0.4816666666666667
-320.9173685345167	0.36133333333333817
-321.3757104810161	0.4539999999999903
-321.8340743559077	0.3639999999999903
-322.2924601607681	0.3289999999999903
-322.7508678971735	0.33066666666665695
-323.20929756669835	0.3360000000000097
-323.6677491709125	0.265
-324.1262227113924	0.2836666666666618
-324.58471818971447	0.31233333333332364
-325.04323560745513	0.34699999999999515
-325.50177496617994	0.33066666666665695
-325.96033626746976	0.42733333333332363
-326.4189195129009	0.41
-326.87752470405206	0.38733333333332365
-327.33615184248663	0.3080000000000048
-327.7948009297897	0.3463333333333382
-328.25347196753336	0.36833333333333335
-328.7121649573005	0.39366666666666184
-329.17087990065465	0.35266666666667634
-329.6296167991787	0.305
-330.0883756544512	0.27433333333334303
-330.5471564680486	0.34433333333334304
-331.0059592415409	0.35300000000000487
-331.4647839765066	0.29699999999999516
-331.9236306745287	0.3303333333333285
-332.3824993371814	0.3363333333333382
-332.841389966039	0.39
-333.30030256268014	0.425
-333.75923712868115	0.37033333333332846
-334.2181936656272	0.3203333333333285
-334.67717217508607	0.25533333333332847
-335.13617265863843	0.2603333333333285
-335.59519511786516	0.27233333333332366
-336.05423955434696	0.315
-336.5133059696538	0.3680000000000048
-336.9723943653707	0.34300000000000486
-337.431504743072	0.38066666666665694
-337.89063710434493	0.3030000000000049
-338.3497914507573	0.27699999999999514
-338.80896778389416	0.20800000000000485
-339.2681661053341	0.16833333333333333
-339.72738641665796	0.22066666666665696
-340.18662871944645	0.20933333333334303
-340.6458930152738	0.205
-341.10517930572087	0.25166666666666665
-341.56448759237264	0.18
-342.0238178768078	0.24300000000000485
-342.48317016060497	0.3086666666666618
-342.9425444453427	0.27366666666666184
-343.4019407326039	0.32666666666666666
-343.86135902397376	0.27300000000000485
-344.3207993210264	0.2103333333333285
-344.7802616253449	0.2103333333333285
-345.23974593850994	0.24333333333333335
-345.69925226211103	0.2786666666666618
-346.15878059771586	0.22833333333333333
-346.6183309469139	0.25733333333332364
-347.0779033112881	0.254333333333343
-347.5374976924213	0.33366666666666184
-347.99711409189007	0.28933333333334305
-348.4567525112773	0.3603333333333285
-348.91641295217016	0.25266666666667636
-349.37609541615393	0.265
-349.8357999048005	0.28933333333334305
-350.2955264196995	0.3660000000000097
-350.7552749624338	0.36266666666667635
-351.21504553458846	0.27166666666666667
-351.6748381377421	0.23733333333332363
-352.13465277347984	0.23666666666666666
-352.59448944338675	0.125
-353.05434814905016	0.2816666666666667
-353.51422889204645	0.2633333333333333
-353.9741316739629	0.22199999999999515
-354.43405649638464	0.21766666666667636
-354.8940033608989	0.2160000000000097
-355.35397226908435	0.2676666666666764
-355.8139632225282	0.2989999999999903
-356.2739762228155	0.21899999999999029
-356.73401127153585	0.23566666666665698
-357.19406837026554	0.16533333333332847
-357.65414752059405	0.30033333333332846
-358.1142487241087	0.23166666666666666
-358.5743719823988	0.2816666666666667
-359.0345172970388	0.25300000000000483
-359.49468466962236	0.18233333333332363
-359.95487410173456	0.29
-360.4150855949649	0.2239999999999903
-360.875319150892	0.21566666666665696
-361.3355747711074	0.205
-361.79585245719625	0.3303333333333285
-362.25615221074577	0.2946666666666715
-362.7164740333498	0.31966666666667154
-363.17681792658476	0.22066666666665696
-363.63718389204223	0.33933333333334303
-364.09757193130946	0.18699999999999514
-364.5579820459781	0.16800000000000484
-365.01841423763113	0.1803333333333285
-365.47886850785574	0.23566666666665698
-365.93934485824354	0.22733333333332365
-366.399843290384	0.2783333333333333
-366.8603638058601	0.30199999999999516
-367.32090640626336	0.3060000000000097
-367.78147109318115	0.19233333333332364
-368.24205786820716	0.2339999999999903
-368.70266673292434	0.1710000000000097
-369.16329768892433	0.2603333333333285
-369.6239507377966	0.2386666666666618
-370.08462588113264	0.14066666666665698
-370.54532312051765	0.25333333333333335
-371.00604245754323	0.26
-371.46678389379883	0.1610000000000097
-371.92754743088034	0.2196666666666715
-372.38833307036856	0.2739999999999903
-372.84914081385944	0.33166666666666667
-373.3099706629424	0.2676666666666764
-373.7708226192113	0.3113333333333382
-374.23169668424896	0.2619999999999951
-374.69259285965353	0.26866666666666184
-375.15351114701235	0.23766666666667638
-375.6144515479234	0.2453333333333285
-376.07541406396757	0.28433333333334304
-376.53639869674294	0.27
-376.9974054478411	0.22566666666665697
-377.45843431885584	0.20300000000000484
-377.91948531137444	0.1946666666666715
-378.38055842698844	0.11766666666667637
-378.84165366729604	0.25800000000000484
-379.30277103388886	0.17699999999999516
-379.7639105283541	0.2196666666666715
-380.22507215228774	0.1689999999999903
-380.68625590728135	0.28833333333333333
-381.1474617949353	0.25466666666667154
-381.6086898168324	0.264333333333343
-382.06993997457306	0.27300000000000485
-382.5312122697467	0.31266666666667636
-382.9925067039492	0.19133333333333818
-383.45382327877866	0.175
-383.9151619958224	0.14233333333332363
-384.3765228566743	0.1486666666666618
-384.83790586293225	0.07533333333332848
-385.2993110161967	0.18733333333332364
-385.76073831804837	0.145
-386.22218777009186	0.15866666666666182
-386.68365937391667	0.15
-387.14515313112736	0.19199999999999515
-387.60666904330685	0.15600000000000971
-388.0682071120576	0.22166666666666668
-388.52976733897566	0.23333333333333334
-388.99134972565685	0.21633333333333818
-389.4529542736928	0.1663333333333382
-389.9145809846795	0.15366666666666182
-390.3762298602194	0.13966666666667152
-390.83790090190627	0.1939999999999903
-391.2995941113338	0.26733333333332365
-391.7613094900981	0.07466666666667152
-392.22304703979927	0.21800000000000486
-392.68480676203774	0.17033333333332848
-393.1465886584029	0.34433333333334304
-393.608392730495	0.21766666666667636
-394.07021897991	0.21566666666665696
-394.53206740825254	0.15666666666666668
-394.99393801711204	0.2753333333333285
-395.4558308080888	0.20800000000000485
-395.91774578278097	0.2360000000000097
-396.37968294279096	0.16133333333333819
-396.84164228971036	0.25466666666667154
-397.3036238251394	0.14733333333332363
-397.7656275506785	0.18
-398.22765346793005	0.21800000000000486
-398.68970157848565	0.2160000000000097
-399.15177188394773	0.2773333333333236
-399.61386438591444	0.1260000000000097
-400.07597908599257	0.16566666666665697
-400.53811598576937	0.15066666666665696
-401.0002750868516	0.15600000000000971
-401.4624563908375	0.17699999999999516
-401.92465989933146	0.25333333333333335
-402.38688561392746	0.24466666666667153
-402.8491335362279	0.16233333333332364
-403.3114036678331	0.09300000000000486
-403.7736960103475	0.15800000000000486
-404.2360105653672	0.21766666666667636
-404.69834733449255	0.13933333333334302
-405.160706319328	0.28633333333333816
-405.6230875214739	0.2246666666666715
-406.08549094253493	0.2619999999999951
-406.54791658410477	0.21066666666665695
-407.01036444779027	0.29066666666665697
-407.47283453519384	0.324333333333343
-407.93532684791796	0.319333333333343
-408.3978413875608	0.37466666666667153
-408.86037815572683	0.29066666666665697
-409.3229371540164	0.2676666666666764
-409.78551838404076	0.24066666666665695
-410.2481218473935	0.20033333333332848
-410.7107475456772	0.2036666666666618
-411.1733954805007	0.20833333333333334
-411.63606565346873	0.17
-412.0987580661772	0.254333333333343
-412.5614727202328	0.18699999999999514
-413.02420961724033	0.1896666666666715
-413.4869687588065	0.24166666666666667
-413.9497501465272	0.2
-414.41255378201356	0.17466666666667152
-414.87537966686597	0.16933333333334302
-415.3382278026954	0.1386666666666618
-415.801098191098	0.19066666666665696
-416.2639908336825	0.15133333333333818
-416.7269057320537	0.23699999999999516
-417.1898428878204	0.2110000000000097
-417.6528023025808	0.24833333333333332
-418.1157839779439	0.27366666666666184
-418.57878791551644	0.17266666666667638
-419.0418141169052	0.20699999999999516
-419.5048625837104	0.19533333333332847
-419.9679333175411	0.17733333333332363
-420.4310263200041	0.08133333333333818
-420.8941415927104	0.17
-421.3572791372561	0.20233333333332362
-421.82043895525436	0.22766666666667637
-422.28362104831206	0.20566666666665698
-422.74682541803804	0.12933333333334304
-423.21005206603274	0.23466666666667152
-423.67330099390716	0.2823333333333236
-424.13657220326814	0.2776666666666764
-424.59986569572897	0.2866666666666667
-425.0631814728878	0.24
-425.5265195363578	0.1710000000000097
-425.9898798877459	0.16566666666665697
-426.45326252866096	0.24699999999999514
-426.9166674607163	0.2496666666666715
-427.3800946855101	0.20233333333332362
-427.84354420465553	0.11300000000000485
-428.3070160197638	0.14800000000000485
-428.770510132446	0.21800000000000486
-429.2340265443025	0.11433333333334303
-429.69756525694646	0.0939999999999903
-430.16112627199124	0.13433333333334305
-430.62470959104576	0.14
-431.08831521571466	0.23766666666667638
-431.5519431476091	0.2633333333333333
-432.0155933883424	0.22366666666666182
-432.4792659395277	0.24300000000000485
-432.9429608027654	0.2783333333333333
-433.4066779796732	0.30333333333333334
-433.87041747185987	0.22699999999999515
-434.334179280941	0.21899999999999029
-434.7979634085168	0.18266666666667636
-435.26176985620714	0.17733333333332363
-435.72559862562093	0.27566666666665696
-436.1894497183737	0.275
-436.6533231360678	0.1313333333333382
-437.1172188803209	0.21300000000000485
-437.5811369527441	0.21566666666665696
-438.0450773549529	0.21166666666666667
-438.5090400885541	0.18466666666667153
-438.973025155161	0.2726666666666764
-439.43703255638684	0.185
-439.90106229384924	0.19933333333334302
-440.36511436915504	0.22566666666665697
-440.82918878391536	0.1939999999999903
-441.29328553975	0.15766666666667636
-441.7574046382722	0.1296666666666715
-442.2215460810888	0.14433333333334303
-442.68570986981524	0.19966666666667152
-443.1498960060691	0.27433333333334303
-443.614104491466	0.24833333333333332
-444.07833532761254	0.2960000000000097
-444.5425885161265	0.2713333333333382
-445.00686405862325	0.17933333333334303
-445.4711619567226	0.13233333333332364
-445.935482212027	0.14266666666667638
-446.3998248261584	0.2086666666666618
-446.8641898007302	0.2239999999999903
-447.3285771373643	0.22699999999999515
-447.79298683766524	0.2203333333333285
-448.25741890325503	0.165
-448.72187333574703	0.16366666666666183
-449.18635013675885	0.07266666666667637
-449.65084930790806	0.125
-450.11537085080585	0.024333333333343036
-450.5799147670698	0.04566666666665697
-451.04448105831756	0.0019999999999951493
-451.5090697261711	0.005
-451.97368077223723	0.1889999999999903
-452.4383141981357	0.10433333333334303
-452.90297000548634	0.12800000000000486
-453.36764819590894	0.18633333333333818
-453.8323487710146	0.14433333333334303
-454.29707173242315	0.1610000000000097
-454.7618170817522	0.10933333333334304
-455.22658482062377	0.006666666666666667
-455.6913749506467	0.08466666666667151
-456.15618747344746	0.1253333333333285
-456.6210223906392	0.03
-457.0858797038461	0.11066666666665696
-457.55075941468147	0.16433333333334305
-458.01566152476505	0.19333333333333333
-458.48058603571457	0.14166666666666666
-458.9455329491584	0.24
-459.41050226670126	0.22433333333334304
-459.8754939899715	0.18466666666667153
-460.3405081205869	0.1210000000000097
-460.80554466017145	0.2203333333333285
-461.27060361033637	0.18733333333332364
-461.7356849727057	0.18166666666666667
-462.2007887489016	0.165
-462.66591494054575	0.05733333333332363
-463.1310635492517	0.17966666666667153
-463.5962345766456	0.20666666666666667
-464.0614280243451	0.1460000000000097
-464.5266438939766	0.24933333333334304
-464.9918821871533	0.18233333333332363
-465.45714290550154	0.195
-465.92242605064325	0.21
-466.3877316242004	0.1810000000000097
-466.8530596277885	0.11366666666666182
-467.318410063036	0.20966666666667153
-467.7837829315627	0.20800000000000485
-468.24917823499277	0.10233333333332363
-468.71459597494373	0.1639999999999903
-469.18003615304195	0.13666666666666666
-469.64549877090946	0.19733333333332362
-470.1109838301681	0.25233333333332364
-470.57649133244644	0.32866666666666183
-471.0420212793577	0.15733333333332364
-471.5075736725304	0.16233333333332364
-471.9731485135887	0.21633333333333818
-472.4387458041588	0.30533333333332846
-472.90436554585847	0.18666666666666668
-473.37000774031173	0.2210000000000097
-473.83567238914713	0.1553333333333285
-474.3013594939909	0.17466666666667152
-474.7670690564607	0.3010000000000097
-475.2328010781829	0.1289999999999903
-475.6985555607837	0.2239999999999903
-476.16433250588943	0.19566666666665697
-476.6301319151221	0.259333333333343
-477.0959537901058	0.26166666666666666
-477.561798132469	0.23466666666667152
-478.0276649438424	0.24800000000000486
-478.49355422583926	0.2886666666666618
-478.9594659800923	0.29699999999999516
-479.4254002082258	0.2786666666666618
-479.89135691187255	0.255
-480.3573360926479	0.3030000000000049
-480.8233377521847	0.2776666666666764
-481.28936189210935	0.29933333333334305
-481.7554085140502	0.36433333333334306
-482.22147761962714	0.31233333333332364
-482.6875692104729	0.39666666666666667
-483.1536832882138	0.3863333333333382
-483.61981985448057	0.3303333333333285
-484.08597891089505	0.33
-484.5521604590836	0.355
-485.0183645006812	0.37733333333332364
-485.48459103731415	0.44733333333332365
-485.9508400706044	0.3903333333333285
-486.4171116021848	0.42733333333332363
-486.88340563368376	0.3996666666666715
-487.3497221667342	0.4223333333333236
-487.81606120295794	0.5016666666666667
-488.28242274398355	0.45733333333332366
-488.74880679144593	0.4846666666666715
-489.21521334697366	0.5316666666666666
-489.6816424121908	0.6076666666666763
-490.14809398872796	0.5263333333333382
-490.6145680782202	0.5916666666666667
-491.08106468229596	0.5366666666666666
-491.54758380257937	0.6253333333333285
-492.0141254407076	0.6313333333333382
-492.48068959830687	0.7236666666666618
-492.94727627700786	0.645666666666657
-493.41388547844775	0.680666666666657
-493.8805172042485	0.7489999999999903
-494.34717145604293	0.8086666666666619
-494.813848235466	0.7946666666666715
-495.2805475441505	0.9383333333333334
-495.74726938372055	0.9903333333333285
-496.2140137558112	0.9346666666666715
-496.68078066205516	1.0713333333333381
-497.1475701040875	1.008000000000005
-497.6143820835323	1.125
-498.0812166020267	1.3273333333333237
-498.54807366120355	1.3036666666666619
-499.0149532626978	1.4736666666666618
-499.48185540813364	1.6239999999999903
-499.94878009915027	1.6426666666666763
-500.4157273373806	1.9019999999999953
-500.8826971244617	1.9769999999999952
-501.3496894620156	2.140666666666657
-501.8167043516837	2.43
-502.28374179509893	2.59
-502.75080179389835	2.8773333333333238
-503.21788434970614	3.186999999999995
-503.6849894641659	3.483000000000005
-504.15211713890614	3.979333333333343
-504.6192673755683	4.443666666666662
-505.0864401757787	4.838999999999991
-505.5536355411745	5.395666666666657
-506.02085347339505	5.895666666666657
-506.48809397407314	6.341666666666667
-506.9553570448415	6.806333333333338
-507.4226426873352	7.155
-507.8899509031935	7.338999999999991
-508.35728169405576	7.419333333333343
-508.8246350615461	7.504333333333343
-509.2920110073081	7.525333333333329
-509.7594095329768	7.077333333333324
-510.22683064019367	6.677666666666676
-510.6942743305851	6.146999999999995
-511.1617406057946	5.650333333333329
-511.62922946745715	5.135
-512.0967409172122	4.523666666666662
-512.5642749566924	4.017333333333323
-513.0318315875372	3.691333333333338
-513.4994108113838	3.2603333333333286
-513.9670126298691	3.025666666666657
-514.4346370446391	2.601333333333338
-514.9022840573178	2.4473333333333236
-515.3699536695513	2.1963333333333384
-515.8376458829763	2.06899999999999
-516.3053606992369	1.7566666666666666
-516.7730981199612	1.595666666666657
-517.2408581467931	1.4013333333333382
-517.7086407813741	1.305666666666657
-518.1764460253412	1.2430000000000048
-518.6442738803315	1.1839999999999904
-519.1121243479846	1.0353333333333286
-519.5799974299438	0.9169999999999952
-520.0478931278486	0.949333333333343
-520.5158114433318	0.8430000000000049
-520.9837523780393	0.8546666666666716
-521.4517159336124	0.7119999999999952
-521.9197021116904	0.7019999999999952
-522.3877109139106	0.6480000000000049
-522.8557423419145	0.6253333333333285
-523.3237963973435	0.6430000000000049
-523.7918730818434	0.6396666666666715
-524.2599723970492	0.5326666666666764
-524.7280943446024	0.5106666666666569
-525.1962389261444	0.4786666666666618
-525.6644061433254	0.465
-526.132595997774	0.4286666666666618
-526.6008084911402	0.4239999999999903
-527.0690436250634	0.41566666666665697
-527.5373014011916	0.385
-528.0055818211553	0.40300000000000485
-528.4738848866069	0.39300000000000485
-528.9422105991858	0.36
-529.4105589605377	0.36933333333334306
-529.8789299722998	0.2813333333333382
-530.3473236361201	0.28933333333334305
-530.8157399536378	0.2663333333333382
-531.2841789265054	0.30033333333332846
-531.7526405563557	0.2803333333333285
-532.2211248448366	0.2739999999999903
-532.6896317935916	0.30266666666667635
-533.1581614042711	0.1589999999999903
-533.6267136785101	0.2603333333333285
-534.0952886179564	0.2453333333333285
-534.5638862242538	0.2310000000000097
-535.0325064990544	0.27433333333334303
-535.5011494439935	0.19666666666666666
-535.9698150607188	0.35266666666667634
-536.4385033508763	0.2536666666666618
-536.9072143161118	0.27233333333332366
-537.3759479580754	0.254333333333343
-537.8447042784043	0.215
-538.3134832787485	0.1960000000000097
-538.782284960754	0.17633333333333817
-539.251109326071	0.3036666666666618
-539.7199563763363	0.13033333333332847
-540.1888261132026	0.22
-540.6577185383156	0.16133333333333819
-541.1266336533254	0.265
-541.5955714598736	0.24233333333332363
-542.0645319596101	0.2746666666666715
-542.533515154181	0.2089999999999903
-543.0025210452385	0.18466666666667153
-543.471549634422	0.29066666666665697
-543.9406009233837	0.19833333333333333
-544.4096749137716	0.10866666666666182
-544.8787716072381	0.14733333333332363
-545.3478910054247	0.15933333333334304
-545.8170331099792	0.19233333333332364
-546.2861979225542	0.12666666666666668
-546.7553854448018	0.10133333333333819
-547.2245956783636	0.018333333333333333
-547.6938286248898	0.15733333333332364
-548.1630842860326	0.10699999999999515
-548.6323626634443	0.07800000000000486
-549.1016637587664	0.17266666666667638
-549.5709875736515	0.0739999999999903
-550.0403341097515	0.16133333333333819
-550.5097033687211	0.14233333333332363
-550.9790953521997	0.14
-551.4485100618417	0.085
-551.9179474992993	0.07233333333332363
-552.3874076662273	0.15433333333334304
-552.8568905642691	0.06833333333333333
-553.326396195077	0.13766666666667637
-553.7959245603034	0.14033333333332848
-554.2654756616051	0.09199999999999516
-554.7350495006234	0.045
-555.2046460790151	0.12699999999999514
-555.6742653984302	0.08733333333332363
-556.1439074605275	0.019333333333343035
-556.6135722669509	0.07666666666666666
-557.0832598193547	0.07199999999999515
-557.5529701193913	0.15800000000000486
-558.0227031687151	0.1410000000000097
-558.4924589689829	0.09533333333332848
-558.9622375218382	0.059333333333343036
-559.4320388289378	0.07566666666665696
-559.901862891936	0.005666666666656966
-560.3717097124897	-0.02266666666667637
-560.8415792922447	0.10800000000000486
-561.3114716328574	0.06666666666666667
-561.7813867359847	0.08933333333334303
-562.2513246032833	0.08733333333332363
-562.7212852363965	0.07366666666666181
-563.1912686369857	0.10833333333333334
-563.6612748067051	0.03233333333332363
-564.1313037472138	0.08800000000000485
-564.6013554601575	0.07833333333333334
-565.0714299471971	0.060333333333328486
-565.5415272099829	0.0360000000000097
-566.0116472501801	0.10666666666666667
-566.4817900694323	0.13
-566.9519556694008	0.057666666666676365
-567.4221440517421	0.13
-567.8923552181149	0.07233333333332363
-568.3625891701673	0.1339999999999903
-568.8328459095582	0.0560000000000097
-569.3031254379463	0.03733333333332363
-569.7734277569925	0.125
-570.2437528683452	0.08199999999999515
-570.7141007736628	0.04066666666665696
-571.1844714746044	0.06266666666667636
-571.6548649728329	0.11733333333332363
-572.1252812699944	0.09933333333334303
-572.5957203677541	0.1
-573.0661822677644	0.09800000000000485
-573.5366669716926	0.07066666666665697
-574.007174481187	0.1960000000000097
-574.4777047979082	0.008666666666661816
-574.9482579235155	0.08066666666665696
-575.4188338596717	0.07433333333334304
-575.889432608027	0.0060000000000097016
-576.360054170247	0.04199999999999515
-576.8306985479859	-0.004333333333343035
-577.3013657429113	-0.08266666666667637
-577.7720557566712	-0.0460000000000097
-578.242768590931	-0.009666666666671517
-578.7135042473494	-0.04
-579.1842627275896	-0.0360000000000097
-579.6550440333061	0.044333333333343036
-580.1258481661622	0.0189999999999903
-580.5966751278165	0.17300000000000484
-581.0675249199302	0.051666666666666666
-581.5383975441686	0.11866666666666181
-582.0092930021859	0.105
-582.4802112956436	0.08766666666667637
-582.9511524262044	0.07566666666665696
-583.422116395534	0.034333333333343034
-583.8931032052844	0.05300000000000485
-584.3641128571234	0.10766666666667636
-584.8351453527096	0.0003333333333284827
-585.3062006937128	0.051000000000009704
-585.7772788817853	0.04133333333333818
-586.2483799185924	0.1296666666666715
-586.7195038057973	-0.02
-587.1906505450675	0.08033333333332848
-587.6618201380553	0.10433333333334303
-588.1330125864282	0.10966666666667152
-588.6042278918516	0.13033333333332847
-589.0754660559908	0.07433333333334304
-589.5467270805024	0.05566666666665696
-590.0180109670519	0.0639999999999903
-590.4893177173043	0.04533333333332848
-590.9606473329275	0.06066666666665697
-591.4319998155779	0.05199999999999515
-591.9033751669209	0.04533333333332848
-592.3747733886241	0.06633333333333818
-592.8461944823549	0.057666666666676365
-593.3176384497699	0.04066666666665696
-593.7891052925389	0.12933333333334304
-594.2605950123251	0.11166666666666666
-594.732107610798	0.1510000000000097
-595.2036430896144	0.12300000000000486
-595.6752014504461	0.0839999999999903
-596.1467826949563	0.14666666666666667
-596.6183868248166	0.11
-597.090013841684	0.07833333333333334
-597.5616637472281	0.11466666666667152
-598.0333365431163	0.06233333333332363
-598.5050322310183	0.12233333333332364
-598.9767508125929	0.05433333333334303
-599.4484922895119	0.058333333333333334
-599.9202566634386	0.07666666666666666
-600.3920439360492	0.12933333333334304
-600.863854108998	0.09466666666667152
-601.3356871839613	0.17066666666665697
-601.8075431626023	0.008999999999990299
-602.2794220465906	0.09
-602.7513238376002	0.027666666666676366
-603.2232485372857	0.09466666666667152
-603.6951961473254	0.08066666666665696
-604.1671666693824	0.07766666666667636
-604.6391601051329	0.049333333333343034
-605.1111764562378	-0.018333333333333333
-605.583215724367	-0.06333333333333334
-606.05527791119	0.015666666666656965
-606.5273630183831	0.06300000000000484
-606.999471047605	0.13366666666666183
-607.4716020005297	0.14
-607.943755878825	0.14166666666666666
-608.4159326841688	0.21166666666666667
-608.8881324182223	0.2260000000000097
-609.3603550826554	0.22333333333333333
-609.8326006791439	0.1739999999999903
-610.3048692093575	0.1
-610.7771606749619	0.09699999999999515
-611.2494750776308	0.06366666666666182
-611.721812419036	0.06333333333333334
-612.1941727008518	0.08166666666666667
-612.6665559247411	0.10166666666666667
-613.1389620923824	0.11633333333333819
-613.611391205443	0.06233333333332363
-614.0838432656016	0.06533333333332848
-614.5563182745187	0.11733333333332363
-615.0288162338753	0.16833333333333333
-615.5013371453408	0.1
-615.9738810105914	0.016333333333338185
-616.4464478312925	0.03266666666667637
-616.9190376091203	0.030666666666656964
-617.3916503457488	0.06766666666667637
-617.864286042854	0.06266666666667636
-618.3369447021014	0.1253333333333285
-618.8096263251693	0.20033333333332848
-619.2823309137297	0.052333333333323635
-619.7550584694607	0.051333333333338185
-620.2278089940298	0.043000000000004854
-620.7005824891135	0.016333333333338185
-621.1733789563854	0.09633333333333818
-621.6461983975241	0.0160000000000097
-622.1190408141993	0.017333333333323632
-622.5919062080848	0.050666666666656965
-623.0647945808612	0.008333333333333333
-623.5377059342026	0.023333333333333334
-624.0106402697763	0.06133333333333819
-624.4835975892653	0.07466666666667152
-624.9565778943412	0.08233333333332363
-625.4295811866824	0.012333333333323633
-625.9026074679693	0.012666666666676369
-626.3756567398653	0.11233333333332363
-626.8487290040574	0.085
-627.321824262215	0.08666666666666667
-627.7949425160232	0.0939999999999903
-628.2680837671494	0.10166666666666667
-628.7412480172742	-0.016666666666666666
-629.2144352680758	0.05
-629.6876455212326	0.08166666666666667
-630.1608787784166	0.0360000000000097
-630.6341350413081	0.050666666666656965
-631.1074143115856	0.060333333333328486
-631.5807165909295	0.05
-632.0540418810094	0.17466666666667152
-632.5273901835083	0.07366666666666181
-633.0007615001064	-0.021666666666666667
-633.4741558324843	0.0310000000000097
-633.9475731823117	0.01
-634.4210135512734	0.10166666666666667
-634.8944769410457	-0.014333333333343034
-635.3679633533155	-0.0489999999999903
-635.8414727897504	-0.015
-636.315005252035	0.04533333333332848
-636.7885607418502	0.06699999999999515
-637.2621392608784	0.03866666666666182
-637.7357408107915	0.043000000000004854
-638.2093653932745	0.14033333333332848
-638.6830130100077	0.08800000000000485
-639.1566836626739	0.0610000000000097
-639.6303773529492	0.09366666666666182
-640.104094082512	-0.034666666666671515
-640.5778338530494	0.05800000000000485
-641.0515966662439	0.04866666666666181
-641.5253825237696	0.03933333333334303
-641.9991914273114	0.12766666666667636
-642.4730233785497	0.0660000000000097
-642.9468783791716	0.16966666666667152
-643.4207564308512	0.04666666666666667
-643.894657535273	-0.023666666666661815
-644.3685816941202	0.057666666666676365
-644.8425289090794	0.010333333333328483
-645.3164991818247	-0.007333333333323632
-645.7904925140433	0.09933333333334303
-646.2645089074176	-0.07300000000000485
-646.7385483636306	0.013000000000004851
-647.2126108843712	0.09833333333333333
-647.6866964713114	0.10733333333332364
-648.1608051261403	0.10766666666667636
-648.6349368505428	0.12
-649.1090916462059	0.14833333333333334
-649.5832695148059	0.13966666666667152
-650.0574704580297	0.14933333333334303
-650.5316944775642	0.16766666666667637
-651.0059415750944	0.13666666666666666
-651.4802117522987	0.08
-651.9545050108684	0.12833333333333333
-652.4288213524839	0.05300000000000485
-652.9031607788367	0.06266666666667636
-653.377523291605	0.15433333333334304
-653.851908892476	0.0660000000000097
-654.3263175831366	0.09866666666666181
-654.8007493652782	0.115
-655.275204240577	0.14833333333333334
-655.7496822107221	0.08199999999999515
-656.2241832774027	0.12
-656.6987074423081	0.07199999999999515
-657.1732547071144	0.09166666666666666
-657.647825073515	-0.003999999999990299
-658.1224185431972	0.04133333333333818
-658.5970351178521	0.025
-659.071674799156	-0.0033333333333333335
-659.5463375888046	0.005
-660.0210234884827	-0.05733333333332363
-660.4957324998816	0.0689999999999903
-660.970464624684	0.019666666666671516
-661.4452198645815	0.08333333333333333
-661.9199982212587	-0.018333333333333333
-662.3947996964134	0.10133333333333819
-662.8696242917221	0.05966666666667152
-663.3444720088801	0.08533333333332849
-663.8193428495747	0.17533333333332848
-664.2942368154993	0.115
-664.7691539083344	0.03
-665.2440941297757	-0.03199999999999515
-665.7190574815126	-0.008333333333333333
-666.1940439652361	0.08699999999999515
-666.6690535826314	-0.001333333333338184
-667.1440863353895	-0.034666666666671515
-667.6191422252042	0.11366666666666182
-668.0942212537668	0.043000000000004854
-668.5693234227599	0.10266666666667637
-669.0444487338814	0.075
-669.5195971888182	0.11
-669.9947687892642	0.02
-670.4699635369146	-0.016333333333338185
-670.9451814334525	0.018333333333333333
-671.4204224805712	0.043000000000004854
-671.8956866799642	-0.002666666666676368
-672.3709740333295	-0.033666666666661814
-672.8462845423476	0.06166666666666667
-673.3216182087161	0.05533333333332848
-673.7969750341267	0.04666666666666667
-674.2723550202793	0.03800000000000485
-674.7477581688544	0.02699999999999515
-675.2231844815498	0.06933333333334303
-675.6986339600613	-0.008333333333333333
-676.1741066060845	-0.013999999999990298
-676.6496024213021	0.006999999999995149
-677.1251214074143	0.06733333333332363
-677.6006635661165	0.06733333333332363
-678.0762288991046	0.07533333333332848
-678.5518174080635	0.011666666666666667
-679.0274290946908	-0.007666666666676368
-679.5030639606846	0.005666666666656966
-679.9787220077426	-0.030333333333328483
-680.4544032375497	-0.0010000000000097012
-680.9301076518038	-0.011666666666666667
-681.4058352522029	-0.005333333333328483
-681.8815860404445	-0.04566666666665697
-682.3573600182182	-0.018666666666661814
-682.8331571872193	-0.03233333333332363
-683.308977549148	0.03333333333333333
-683.7848211057002	0.0839999999999903
-684.2606878585669	0.07933333333334304
-684.7365778094462	0.09233333333332364
-685.2124909600358	0.08433333333334303
-685.688427312038	0.024333333333343036
-686.1643868671355	0.049333333333343034
-686.640369627037	0.01
-687.1163755934316	-0.016333333333338185
-687.592404768028	-0.07133333333333819
-688.0684571525112	-0.049666666666671515
-688.5445327485811	-0.055
-689.0206315579399	0.01
-689.4967535822876	-0.015666666666656965
-689.9728988233136	0.04466666666667152
-690.4490672827199	0.00800000000000485
-690.9252589622043	0.09933333333334303
-691.4014738634692	0.06933333333334303
-691.8777119882124	0.085
-692.3539733381273	0.0810000000000097
-692.8302579149183	0.11966666666667151
-693.3065657202812	0.1089999999999903
-693.782896755916	0.0889999999999903
-694.2592510235271	0.07466666666667152
-694.7356285248057	0.0989999999999903
-695.2120292614607	-0.005666666666656966
-695.6884532351831	0.02300000000000485
-696.1649004476822	0.07233333333332363
-696.6413709006488	0.049666666666671515
-697.1178645957918	0.07633333333333818
-697.5943815348027	0.04
-698.0709217193943	0.1089999999999903
-698.547485151258	0.05433333333334303
-699.0240718320983	0.023333333333333334
-699.5006817636153	0.11
-699.977314947513	0.035
-700.4539713854917	0.0389999999999903
-700.9306510792559	0.06166666666666667
-701.4073540305009	0.043333333333333335
-701.8840802409356	0.02266666666667637
-702.3608297122558	-0.04733333333332363
-702.8376024461702	-0.026000000000009703
-703.3143984443786	-0.04066666666665696
-703.7912177085856	-0.15833333333333333
-704.2680602404868	-0.015666666666656965
-704.7449260417994	0.018333333333333333
-705.221815114215	-0.06166666666666667
-705.6987274594424	-0.0439999999999903
-706.1756630791813	0.04533333333332848
-706.6526219751405	-0.0010000000000097012
-707.1296041490159	0.075
-707.6066096025246	-0.0060000000000097016
-708.0836383373583	-0.029666666666671518
-708.5606903552296	0.014666666666671517
-709.0377656578345	-0.04466666666667152
-709.5148642468903	-0.003999999999990299
-709.9919861240926	0.03666666666666667
-710.4691312911503	0.055
-710.9462997497633	0.022333333333323633
-711.4234915016445	0.045
-711.9007065484986	-0.036333333333338186
-712.3779448920254	-0.006999999999995149
-712.855206533938	0.08933333333334303
-713.3324914759364	0.026000000000009703
-713.8097997197294	-0.011000000000009702
-714.2871312670255	0.03699999999999515
-714.7644861195292	-0.011000000000009702
-715.2418642789494	-0.03666666666666667
-715.71926574699	-0.03199999999999515
-716.19669052536	0.021666666666666667
-716.6741386157682	0.018666666666661814
-717.1516100199144	-0.0460000000000097
-717.6291047395205	0.10033333333332849
-718.1066227762776	0.11033333333332848
-718.5841641319076	0.08
-719.0617288081106	0.10966666666667152
-719.5393168065996	0.10266666666667637
-720.0169281290788	0.07133333333333819
-720.4945627772613	0.06966666666667151
-720.9722207528516	0.14966666666667153
-721.4499020575627	0.06066666666665697
-721.9276066930988	-0.08566666666665697
-722.4053346611774	-0.049666666666671515
-722.8830859634986	0.01
-723.3608606017754	-0.052333333333323635
-723.8386585777207	-0.02
-724.3164798930433	-0.07166666666666667
-724.7943245494477	0.050333333333328484
-725.272192548651	-0.0060000000000097016
-725.7500838923621	-0.04066666666665696
-726.2279985822896	-0.014333333333343034
-726.7059366201466	0.014666666666671517
-727.1838980076462	-0.07300000000000485
-727.6618827464928	-0.04033333333332848
-728.1398908384035	-0.015666666666656965
-728.6179222850873	-0.013333333333333334
-729.095977088257	0.021666666666666667
-729.5740552496214	0.06566666666665696
-730.052156770898	0.12733333333332364
-730.5302816537911	0.043333333333333335
-731.0084299000223	0.12633333333333818
-731.4866015113004	0.13066666666665697
-731.964796489334	0.09533333333332848
-732.4430148358406	0.028666666666661816
-732.9212565525332	0.021666666666666667
-733.3995216411205	0.025666666666656967
-733.8778101033242	0.07833333333333334
-734.3561219408443	0.11466666666667152
-734.8344571554113	0.10566666666665697
-735.3128157487251	0.07033333333332849
-735.7911977225033	0.10633333333333818
-736.2696030784673	0.035
-736.7480318183216	0.09133333333333818
-737.2264839437879	0.0810000000000097
-737.7049594565793	0.1
-738.1834583584089	0.05966666666667152
-738.6619806509894	0.021666666666666667
-739.1405263360386	-0.021666666666666667
-739.6190954152737	0.028333333333333332
-740.0976878904078	0.018666666666661814
-740.5763037631581	0.10233333333332363
-741.054943035242	0.08633333333333819
-741.5336057083684	0.016666666666666666
-742.0122917842632	0.05800000000000485
-742.4910012646309	0.06833333333333333
-742.9697341512017	0.06066666666665697
-743.44849044568	0.08300000000000485
-743.927270149792	0.11733333333332363
-744.4060732652506	0.07199999999999515
-744.8848997937732	-0.0019999999999951493
-745.3637497370773	0.06833333333333333
-745.8426230968801	0.06866666666666181
-746.3215198748991	0.011333333333338184
-746.8004400728515	0.12933333333334304
-747.2793836924593	0.06300000000000484
-747.7583507354353	0.0560000000000097
-748.2373412035014	0.14233333333332363
-748.716355098379	-0.03300000000000485
-749.1953924217772	0.01199999999999515
-749.6744531754217	-0.007666666666676368
-750.1535373610302	-0.04733333333332363
-750.6326449803285	0.026333333333338184
-751.111776035021	-0.0006666666666569654
-751.5909305268425	-0.03166666666666667
-752.0701084575018	-0.011000000000009702
-752.5493098287246	0.04733333333332363
-753.0285346422287	0.03866666666666182
-753.5077828997398	-0.023333333333333334
-753.987054602967	-0.052333333333323635
-754.4663497536402	-0.03133333333333818
-754.9456683534771	0.045
-755.4250104042037	0.05733333333332363
-755.9043759075286	-0.010333333333328483
-756.3837648651867	0.12
-756.8631772788864	0.12333333333333334
-757.3426131503628	0.10666666666666667
-757.8220724813286	0.05466666666667152
-758.3015552735102	0.003666666666661816
-758.7810615286247	-0.011666666666666667
-759.2605912483939	0.04699999999999515
-759.7401444345481	-0.13233333333332364
-760.2197210888049	-0.07433333333334304
-760.6993212128901	-0.0839999999999903
-761.1789448085212	-0.04699999999999515
-761.6585918774243	-0.07833333333333334
-762.1382624213211	0.011000000000009702
-762.6179564419375	-0.002666666666676368
-763.0976739409954	0.03266666666667637
-763.5774149202207	0.07199999999999515
-764.0571793813351	0.035666666666656965
-764.5369673260649	0.04699999999999515
-765.0167787561315	0.045
-765.4966136732611	0.049333333333343034
-765.9764720791754	-0.018666666666661814
-766.4563539756049	0.1410000000000097
-766.9362593642668	0.05466666666667152
-767.4161882468959	0.0889999999999903
-767.8961406252051	0.018666666666661814
-768.3761165009338	0.12666666666666668
-768.856115875799	0.058666666666661815
-769.336138751527	0.08833333333333333
-769.8161851298437	0.028333333333333332
-770.2962550124796	0.02
-770.7763484011564	0.016333333333338185
-771.2564652976043	0.0410000000000097
-771.7366057035454	0.0489999999999903
-772.2167696207097	0.07199999999999515
-772.6969570508234	0.06766666666667637
-773.1771679956125	0.065
-773.6574024568075	0.10866666666666182
-774.1376604361301	0.1910000000000097
-774.6179419353149	0.06699999999999515
-775.0982469560837	0.06833333333333333
-775.578575500167	0.011666666666666667
-776.0589275692992	0.007666666666676368
-776.5393031651936	0.07366666666666181
-777.0197022895935	0.003999999999990299
-777.5001249442207	-0.011666666666666667
-777.9805711308056	0.04833333333333333
-778.4610408510741	0.1260000000000097
-778.941534106761	0.06133333333333819
-779.422050899588	0.06733333333332363
-779.9025912312899	0.003999999999990299
-780.383155103597	0.08666666666666667
-780.8637425182397	0.08966666666667152
-781.3443534769441	0.0010000000000097012
-781.8249879814406	0.011333333333338184
-782.3056460334637	0.03266666666667637
-782.7863276347398	0.013000000000004851
-783.2670327870034	0.02733333333332363
-783.7477614919806	0.07933333333334304
-784.2285137514104	0.045
-784.7092895670147	0.06699999999999515
-785.190088940528	0.007666666666676368
-785.6709118736851	0.024666666666671517
-786.1517583682121	0.049333333333343034
-786.632628425848	0.051000000000009704
-787.1135220483189	0.018666666666661814
-787.5944392373596	0.0889999999999903
-788.0753799947003	-0.021666666666666667
-788.5563443220758	0.06166666666666667
-789.0373322212208	-0.02
-789.5183436938614	-0.03333333333333333
-789.9993787417368	-0.035666666666656965
-790.4804373665771	-0.013333333333333334
-790.9615195701215	0.10733333333332364
-791.4426253540961	-0.014333333333343034
-791.9237547202398	-0.09966666666667151
-792.4049076702788	0.04833333333333333
-792.8860842059564	0.012666666666676369
-793.3672843290032	0.005
-793.8485080411537	0.0539999999999903
-794.3297553441382	0.13833333333333334
-794.8110262397004	0.10199999999999515
-795.2923207295705	0.1713333333333382
-795.7736388154832	0.10866666666666182
-796.2549804991734	0.10733333333332364
-796.7363457823756	0.18366666666666182
-797.217734666829	0.1596666666666715
-797.6991471542682	0.09933333333334303
-798.180583246428	0.0460000000000097
-798.6620429450433	0.049333333333343034
-799.1435262518528	-0.021000000000009702
-799.6250331685959	-0.020666666666656966
-800.1065636969985	0.028999999999990297
-800.5881178388125	0.08166666666666667
-801.06969559576	0.0960000000000097
-801.5512969695884	0.06566666666665696
-802.0329219620326	0.07800000000000486
-802.5145705748272	0.07566666666665696
-802.9962428097114	0.1363333333333382
-803.4779386684241	0.06800000000000485
-803.9596581527046	0.135
-804.4414012642874	0.09466666666667152
-804.9231680049115	0.017666666666676368
-805.4049583763206	0.015666666666656965
-805.8867723802448	0.057666666666676365
-806.368610018432	0.1089999999999903
-806.8504712926126	0.03866666666666182
-807.3323562045299	0.04633333333333818
-807.8142647559273	0.13166666666666665
-808.2961969485352	0.13833333333333334
-808.7781527841014	0.14699999999999516
-809.2601322643649	0.15066666666665696
-809.7421353910604	0.07633333333333818
-810.2241621659313	0.09300000000000486
-810.7062125907211	-0.007333333333323632
-811.1882866671644	0.009333333333343035
-811.6703843970047	0.02800000000000485
-812.1525057819853	-0.015333333333328482
-812.634650823841	0.035
-813.1168195243196	0.11300000000000485
-813.5990118851643	-0.012666666666676369
-814.0812279081055	-0.03166666666666667
-814.5634675948954	0.07033333333332849
-815.0457309472688	0.034666666666671515
-815.5280179669776	-0.005666666666656966
-816.0103286557522	-0.04533333333332848
-816.4926630153448	-0.057666666666676365
-816.9750210474899	-0.04066666666665696
-817.4574027539397	0.07066666666665697
-817.9398081364247	0.04
-818.4222371967012	-0.08600000000000971
-818.9046899365038	0.04199999999999515
-819.3871663575804	0.12833333333333333
-819.8696664616701	0.041666666666666664
