-194.34305441739858	-0.045
-194.79536075947718	0.028333333333333332
-195.24768859823178	0.05
-195.70003793519538	0.08166666666666667
-196.15240877190544	0.0789999999999903
-196.60480110989712	0.09966666666667151
-197.0572149506927	-0.002666666666676368
-197.50965029583173	-0.11199999999999515
-197.96210714684943	-0.03133333333333818
-198.41458550527886	-0.07199999999999515
-198.86708537264877	-0.1946666666666715
-199.31960675049436	-0.1239999999999903
-199.77214964035304	-0.09566666666665696
-200.22471404376003	-0.021333333333338183
-200.6772999622419	-0.06766666666667637
-201.12990739733607	-0.08733333333332363
-201.58253635057773	0.04133333333333818
-202.03518682350864	-0.015
-202.48785881765102	0.07266666666667637
-202.9405523345444	0.0610000000000097
-203.39326737572623	-0.035666666666656965
-203.8460039427339	0.024666666666671517
-204.29876203709608	-0.12633333333333818
-204.75154166035023	-0.07933333333334304
-205.20434281403158	-0.07166666666666667
-205.657165499684	-0.025666666666656967
-206.1100097188319	-0.07
-206.5628754730148	-0.05333333333333334
-207.01576276377017	-0.011333333333338184
-207.4686715926397	0.002333333333323632
-207.92160196115	0.06966666666667151
-208.37455387084057	-0.011666666666666667
-208.82752732325102	-0.013000000000004851
-209.2805223199209	-0.0810000000000097
-209.73353886238107	0.02
-210.186576952169	0.029333333333343033
-210.6396365908242	0.016333333333338185
-211.09271777988843	0.02666666666666667
-211.5458205208926	0.035666666666656965
-211.99894481537407	-0.0560000000000097
-212.45209066487462	-0.08033333333332848
-212.90525807093158	-0.011666666666666667
-213.35844703508894	-0.05333333333333334
-213.81165755887318	-0.035
-214.26488964382827	-0.02033333333332848
-214.7181432914937	-0.026333333333338184
-215.1714185034113	0.08366666666666181
-215.62471528111405	-0.065
-216.07803362614374	0.0060000000000097016
-216.53137354003772	0.0360000000000097
-216.9847350243421	-0.09033333333332848
-217.43811808058777	-0.007333333333323632
-217.8915227103186	0.04833333333333333
-218.3449489150742	0.011000000000009702
-218.79839669639847	0.01800000000000485
-219.2518660558223	0.0439999999999903
-219.7053569948917	0.10300000000000485
-220.15886951514634	-0.015666666666656965
-220.61240361813222	-0.025
-221.06595930538026	-0.023666666666661815
-221.51953657843652	0.05800000000000485
-221.9731354388406	-0.03866666666666182
-222.4267558881385	-0.019666666666671516
-222.88039792786336	-0.08133333333333818
-223.3340615595612	0.029666666666671518
-223.78774678477382	0.002333333333323632
-224.24145360504505	-0.06066666666665697
-224.69518202191014	0.025666666666656967
-225.14893203691736	-0.05366666666666182
-225.6027036516041	-0.020666666666656966
-226.05649686752074	-0.03933333333334303
-226.51031168620037	-0.050666666666656965
-226.96414810918904	-0.06766666666667637
-227.41800613802852	-0.0689999999999903
-227.87188577426917	-0.07033333333332849
-228.3257870194441	-0.03866666666666182
-228.77970987510153	-0.0789999999999903
-229.23365434278105	0.09866666666666181
-229.68762042403517	0.06
-230.14160812039702	0.03199999999999515
-230.59561743341484	0.02300000000000485
-231.04964836463031	-0.0006666666666569654
-231.50370091559606	-0.06233333333332363
-231.9577750878451	0.05800000000000485
-232.41187088292793	0.012333333333323633
-232.86598830238617	-0.026333333333338184
-233.32012734776816	-0.03733333333332363
-233.7742880206199	0.052333333333323635
-234.22847032247884	-0.04699999999999515
-234.68267425489535	0.03800000000000485
-235.13689981941337	0.013666666666661815
-235.59114701758327	0.028666666666661816
-236.04541585094248	0.014333333333343034
-236.49970632103924	0.04466666666667152
-236.95401842942178	0.028666666666661816
-237.40835217763833	-0.06766666666667637
-237.86270756722848	-0.02666666666666667
-238.31708459974044	-0.030333333333328483
-238.7714832767225	-0.03666666666666667
-239.22590359972503	-0.022333333333323633
-239.68034557028543	-0.06933333333334303
-240.13480918995845	-0.0016666666666666668
-240.58929446028583	-0.024333333333343036
-241.04380138282232	0.09533333333332848
-241.49832995910532	-0.006666666666666667
-241.9528801906874	0.03266666666667637
-242.4074520791168	0.0160000000000097
-242.86204562594392	0.002666666666676368
-243.31666083271054	0.08833333333333333
-243.771297700967	0.0006666666666569654
-244.2259562322616	0.01699999999999515
-244.6806364281469	0.042666666666676366
-245.13533829016242	0.06699999999999515
-245.59006181986516	0.04133333333333818
-246.04480701879896	-0.015666666666656965
-246.4995738885186	-0.057666666666676365
-246.95436243056577	-0.03233333333332363
-247.40917264649312	0.0006666666666569654
-247.8640045378488	-0.08199999999999515
-248.31885810618982	-0.02699999999999515
-248.7737333530535	-0.01699999999999515
-249.22863027999898	0.002333333333323632
-249.68354888857013	0.03666666666666667
-250.13848918032602	-0.09800000000000485
-250.59345115680628	-0.08166666666666667
-251.04843481956775	-0.07800000000000486
-251.5034401701587	0.022333333333323633
-251.9584672101339	0.011000000000009702
-252.41351594103722	-0.008333333333333333
-252.86858636442344	-0.013999999999990298
-253.3236784818451	-0.01800000000000485
-253.77879229485046	-0.03833333333333333
-254.23392780499861	-0.09333333333333334
-254.6890850138291	0.005333333333328483
-255.14426392290102	0.07233333333332363
-255.59946453376477	-0.043333333333333335
-256.0546868479773	0.06133333333333819
-256.50993086708246	0.0460000000000097
-256.96519659263504	0.08699999999999515
-257.42048402618974	0.0410000000000097
-257.8757931693035	0.025333333333328482
-258.3311240235181	0.10199999999999515
-258.7864765903947	-0.026333333333338184
-259.2418508714817	-0.029333333333343033
-259.6972468683423	-0.0060000000000097016
-260.15266458251625	-0.024666666666671517
-260.6081040155625	-0.0460000000000097
-261.0635651690359	0.07433333333334304
-261.51904804449543	0.006999999999995149
-261.97455264348514	0.045
-262.43007896756177	0.11466666666667152
-262.88562701828454	0.043333333333333335
-263.34119679720595	0.06833333333333333
-263.7967883058765	0.05733333333332363
-264.25240154585515	0.05800000000000485
-264.70803651869454	0.004666666666671517
-265.16369322595375	0.07199999999999515
-265.619371669181	0.09466666666667152
-266.0750718499376	0.10966666666667152
-266.53079376977394	0.10199999999999515
-266.98653743025557	0.0789999999999903
-267.4423028329264	0.12266666666667637
-267.8980899793455	0.1739999999999903
-268.35389887107203	0.20966666666667153
-268.809729509665	0.07800000000000486
-269.26558189667264	0.1339999999999903
-269.7214560336541	0.0310000000000097
-270.1773519221706	0.10633333333333818
-270.6332695637768	0.11066666666665696
-271.0892089600255	0.07699999999999516
-271.5451701124777	0.09833333333333333
-272.0011530226883	0.13333333333333333
-272.45715769222284	0.1786666666666618
-272.91318412262734	0.25566666666665694
-273.3692323154632	0.27566666666665696
-273.8253022722893	0.26733333333332365
-274.28139399466926	0.2336666666666618
-274.73750748415335	0.33300000000000485
-275.19364274230077	0.30966666666667153
-275.6497997706705	0.4063333333333382
-276.10597857082377	0.3360000000000097
-276.56217914432193	0.3039999999999903
-277.0184014927153	0.4280000000000049
-277.47464561756743	0.31199999999999517
-277.9309115204373	0.389333333333343
-278.38719920288827	0.4013333333333382
-278.84350866647304	0.38033333333332847
-279.2998399127528	0.38566666666665694
-279.75619294328885	0.42
-280.21256775964673	0.430666666666657
-280.6689643633747	0.4296666666666715
-281.12538275604055	0.41933333333334305
-281.5818229392033	0.48066666666665697
-282.03828491442636	0.49033333333332846
-282.4947686832645	0.44333333333333336
-282.951274247279	0.4646666666666715
-283.4078016080354	0.44333333333333336
-283.8643507670972	0.49733333333332364
-284.32092172601693	0.564333333333343
-284.77751448636013	0.5219999999999951
-285.23412904968814	0.5126666666666764
-285.69076541756647	0.46933333333334304
-286.1474235915499	0.4663333333333382
-286.6041035732062	0.5626666666666764
-287.0608053640923	0.5480000000000048
-287.5175289657802	0.6233333333333333
-287.9742743798204	0.444333333333343
-288.4310416077828	0.5833333333333334
-288.8878306512286	0.6056666666666569
-289.34464151172347	0.5383333333333333
-289.80147419082215	0.5319999999999951
-290.2583286900945	0.5886666666666618
-290.715205011104	0.5080000000000049
-291.17210315541405	0.6703333333333285
-291.62902312458584	0.664333333333343
-292.0859649201829	0.66
-292.54292854377076	0.7146666666666716
-292.99991399691714	0.67
-293.45692128117906	0.6639999999999903
-293.91395039812414	0.6560000000000097
-294.3710013493181	0.6063333333333382
-294.8280741363286	0.689333333333343
-295.2851687607126	0.665
-295.74228522404	0.7026666666666763
-296.1994235278743	0.6766666666666666
-296.65658367378524	0.6226666666666764
-297.1137656633321	0.5769999999999952
-297.57096949808255	0.6463333333333382
-298.02819517960216	0.7646666666666715
-298.48544270945877	0.675
-298.9427120892222	0.6823333333333236
-299.40000332044724	0.71
-299.8573164047082	0.6430000000000049
-300.3146513435705	0.6633333333333333
-300.7720081386043	0.5869999999999952
-301.22938679136854	0.5886666666666618
-301.68678730343316	0.5280000000000048
-302.1442096763681	0.5273333333333237
-302.60165391174115	0.5780000000000048
-303.0591200111157	0.4716666666666667
-303.51660797605945	0.5483333333333333
-303.97411780814025	0.4339999999999903
-304.43164950893447	0.44966666666667154
-304.88920307999683	0.4980000000000048
-305.34677852290173	0.49199999999999516
-305.80437583921673	0.5063333333333382
-306.2619950305163	0.5013333333333382
-306.71963609835933	0.425666666666657
-307.1772990443202	0.4036666666666618
-307.63498386996446	0.40300000000000485
-308.0926905768685	0.35199999999999515
-308.5504191665915	0.3553333333333285
-309.00816964070987	0.3960000000000097
-309.4659420007891	0.4336666666666618
-309.92373624840354	0.485666666666657
-310.3815523851166	0.4313333333333382
-310.8393904125025	0.44966666666667154
-311.2972503321312	0.4753333333333285
-311.7551321455748	0.4413333333333382
-312.21303585439887	0.38233333333332364
-312.6709614601733	0.3566666666666667
-313.12890896447465	0.3836666666666618
-313.58687836887265	0.4553333333333285
-314.0448696749352	0.36933333333334306
-314.50288288423224	0.33433333333334303
-314.9609179983401	0.36533333333332846
-315.41897501882875	0.3596666666666715
-315.8770539472681	0.44233333333332364
-316.3351547852281	0.3566666666666667
-316.79327753428515	0.4589999999999903
-317.2514221960114	0.44033333333332847
-317.70958877197455	0.39
-318.16777726374886	0.39800000000000485
-318.62598767290865	0.32699999999999513
-319.08422000102377	0.41633333333333816
-319.54247424967286	0.4260000000000097
-320.00075042041937	0.39233333333332365
-320.45904851484397	0.44766666666667637
-320.9173685345167	0.4360000000000097
-321.3757104810161	0.405
-321.8340743559077	0.42199999999999516
-322.2924601607681	0.40433333333334304
-322.7508678971735	0.3786666666666618
-323.20929756669835	0.36266666666667635
-323.6677491709125	0.39699999999999513
-324.1262227113924	0.45699999999999513
-324.58471818971447	0.39
-325.04323560745513	0.33933333333334303
-325.50177496617994	0.3403333333333285
-325.96033626746976	0.4413333333333382
-326.4189195129009	0.3310000000000097
-326.87752470405206	0.36666666666666664
-327.33615184248663	0.41833333333333333
-327.7948009297897	0.35300000000000487
-328.25347196753336	0.314333333333343
-328.7121649573005	0.24866666666666182
-329.17087990065465	0.37033333333332846
-329.6296167991787	0.3546666666666715
-330.0883756544512	0.39666666666666667
-330.5471564680486	0.42933333333334306
-331.0059592415409	0.37266666666667636
-331.4647839765066	0.24066666666665695
-331.9236306745287	0.37533333333332847
-332.3824993371814	0.3136666666666618
-332.841389966039	0.33433333333334303
-333.30030256268014	0.28300000000000486
-333.75923712868115	0.31033333333332846
-334.2181936656272	0.3523333333333236
-334.67717217508607	0.23566666666665698
-335.13617265863843	0.32366666666666183
-335.59519511786516	0.25566666666665694
-336.05423955434696	0.3960000000000097
-336.5133059696538	0.4216666666666667
-336.9723943653707	0.4
-337.431504743072	0.3546666666666715
-337.89063710434493	0.29333333333333333
-338.3497914507573	0.34
-338.80896778389416	0.2789999999999903
-339.2681661053341	0.2783333333333333
-339.72738641665796	0.28433333333334304
-340.18662871944645	0.26300000000000484
-340.6458930152738	0.2663333333333382
-341.10517930572087	0.29433333333334305
-341.56448759237264	0.3263333333333382
-342.0238178768078	0.3433333333333333
-342.48317016060497	0.37666666666666665
-342.9425444453427	0.43800000000000483
-343.4019407326039	0.39733333333332366
-343.86135902397376	0.3926666666666764
-344.3207993210264	0.35833333333333334
-344.7802616253449	0.3403333333333285
-345.23974593850994	0.23533333333332848
-345.69925226211103	0.2763333333333382
-346.15878059771586	0.38166666666666665
-346.6183309469139	0.3403333333333285
-347.0779033112881	0.2866666666666667
-347.5374976924213	0.3760000000000097
-347.99711409189007	0.3710000000000097
-348.4567525112773	0.33433333333334303
-348.91641295217016	0.23199999999999515
-349.37609541615393	0.3263333333333382
-349.8357999048005	0.329333333333343
-350.2955264196995	0.29266666666667634
-350.7552749624338	0.26666666666666666
-351.21504553458846	0.3553333333333285
-351.6748381377421	0.3466666666666667
-352.13465277347984	0.3496666666666715
-352.59448944338675	0.24633333333333818
-353.05434814905016	0.3210000000000097
-353.51422889204645	0.28433333333334304
-353.9741316739629	0.25800000000000484
-354.43405649638464	0.2310000000000097
-354.8940033608989	0.2389999999999903
-355.35397226908435	0.2239999999999903
-355.8139632225282	0.2513333333333382
-356.2739762228155	0.250666666666657
-356.73401127153585	0.2613333333333382
-357.19406837026554	0.26800000000000485
-357.65414752059405	0.3136666666666618
-358.1142487241087	0.3466666666666667
-358.5743719823988	0.25233333333332364
-359.0345172970388	0.385
-359.49468466962236	0.4633333333333333
-359.95487410173456	0.27300000000000485
-360.4150855949649	0.23699999999999516
-360.875319150892	0.3213333333333382
-361.3355747711074	0.2460000000000097
-361.79585245719625	0.29300000000000487
-362.25615221074577	0.28766666666667634
-362.7164740333498	0.2589999999999903
-363.17681792658476	0.2866666666666667
-363.63718389204223	0.28433333333334304
-364.09757193130946	0.3219999999999951
-364.5579820459781	0.264333333333343
-365.01841423763113	0.3210000000000097
-365.47886850785574	0.2796666666666715
-365.93934485824354	0.2313333333333382
-366.399843290384	0.3403333333333285
-366.8603638058601	0.34833333333333333
-367.32090640626336	0.3376666666666764
-367.78147109318115	0.3426666666666764
-368.24205786820716	0.345
-368.70266673292434	0.3189999999999903
-369.16329768892433	0.2810000000000097
-369.6239507377966	0.2519999999999952
-370.08462588113264	0.22233333333332364
-370.54532312051765	0.37233333333332364
-371.00604245754323	0.31333333333333335
-371.46678389379883	0.3413333333333382
-371.92754743088034	0.3039999999999903
-372.38833307036856	0.3
-372.84914081385944	0.3303333333333285
-373.3099706629424	0.26733333333332365
-373.7708226192113	0.21899999999999029
-374.23169668424896	0.235
-374.69259285965353	0.11133333333333818
-375.15351114701235	0.2289999999999903
-375.6144515479234	0.16766666666667637
-376.07541406396757	0.27366666666666184
-376.53639869674294	0.17699999999999516
-376.9974054478411	0.11766666666667637
-377.45843431885584	0.22733333333332365
-377.91948531137444	0.19733333333332362
-378.38055842698844	0.17266666666667638
-378.84165366729604	0.1946666666666715
-379.30277103388886	0.10733333333332364
-379.7639105283541	0.1646666666666715
-380.22507215228774	0.18300000000000485
-380.68625590728135	0.105
-381.1474617949353	0.21133333333333817
-381.6086898168324	0.185
-382.06993997457306	0.14166666666666666
-382.5312122697467	0.32066666666665694
-382.9925067039492	0.2760000000000097
-383.45382327877866	0.2783333333333333
-383.9151619958224	0.29333333333333333
-384.3765228566743	0.25966666666667154
-384.83790586293225	0.2013333333333382
-385.2993110161967	0.18166666666666667
-385.76073831804837	0.15199999999999514
-386.22218777009186	0.17966666666667153
-386.68365937391667	0.25800000000000484
-387.14515313112736	0.3210000000000097
-387.60666904330685	0.2746666666666715
-388.0682071120576	0.27166666666666667
-388.52976733897566	0.23733333333332363
-388.99134972565685	0.24333333333333335
-389.4529542736928	0.1960000000000097
-389.9145809846795	0.32800000000000484
-390.3762298602194	0.23733333333332363
-390.83790090190627	0.2986666666666618
-391.2995941113338	0.25166666666666665
-391.7613094900981	0.2946666666666715
-392.22304703979927	0.34066666666665696
-392.68480676203774	0.20300000000000484
-393.1465886584029	0.24766666666667636
-393.608392730495	0.13300000000000486
-394.07021897991	0.20266666666667638
-394.53206740825254	0.12733333333332364
-394.99393801711204	0.24
-395.4558308080888	0.12566666666665696
-395.91774578278097	0.23966666666667152
-396.37968294279096	0.23699999999999516
-396.84164228971036	0.25966666666667154
-397.3036238251394	0.19699999999999515
-397.7656275506785	0.22966666666667152
-398.22765346793005	0.15
-398.68970157848565	0.265
-399.15177188394773	0.2160000000000097
-399.61386438591444	0.28800000000000486
-400.07597908599257	0.31333333333333335
-400.53811598576937	0.3016666666666667
-401.0002750868516	0.16066666666665697
-401.4624563908375	0.2196666666666715
-401.92465989933146	0.2260000000000097
-402.38688561392746	0.24300000000000485
-402.8491335362279	0.2760000000000097
-403.3114036678331	0.20066666666665697
-403.7736960103475	0.25233333333332364
-404.2360105653672	0.26733333333332365
-404.69834733449255	0.20166666666666666
-405.160706319328	0.265
-405.6230875214739	0.18066666666665696
-406.08549094253493	0.1789999999999903
-406.54791658410477	0.23066666666665697
-407.01036444779027	0.19033333333332847
-407.47283453519384	0.185
-407.93532684791796	0.19766666666667637
-408.3978413875608	0.22066666666665696
-408.86037815572683	0.17933333333334303
-409.3229371540164	0.2763333333333382
-409.78551838404076	0.19433333333334304
-410.2481218473935	0.20733333333332363
-410.7107475456772	0.1910000000000097
-411.1733954805007	0.27366666666666184
-411.63606565346873	0.24266666666667636
-412.0987580661772	0.26933333333334303
-412.5614727202328	0.21766666666667636
-413.02420961724033	0.2560000000000097
-413.4869687588065	0.1989999999999903
-413.9497501465272	0.21766666666667636
-414.41255378201356	0.2683333333333333
-414.87537966686597	0.1710000000000097
-415.3382278026954	0.21
-415.801098191098	0.25266666666667636
-416.2639908336825	0.2866666666666667
-416.7269057320537	0.24199999999999514
-417.1898428878204	0.21566666666665696
-417.6528023025808	0.2039999999999903
-418.1157839779439	0.24766666666667636
-418.57878791551644	0.21733333333332364
-419.0418141169052	0.18233333333332363
-419.5048625837104	0.21466666666667153
-419.9679333175411	0.1296666666666715
-420.4310263200041	0.16533333333332847
-420.8941415927104	0.1339999999999903
-421.3572791372561	0.18666666666666668
-421.82043895525436	0.1610000000000097
-422.28362104831206	0.27199999999999513
-422.74682541803804	0.2513333333333382
-423.21005206603274	0.22766666666667637
-423.67330099390716	0.26600000000000973
-424.13657220326814	0.21366666666666181
-424.59986569572897	0.25666666666666665
-425.0631814728878	0.2360000000000097
-425.5265195363578	0.25833333333333336
-425.9898798877459	0.2363333333333382
-426.45326252866096	0.29833333333333334
-426.9166674607163	0.21366666666666181
-427.3800946855101	0.22566666666665697
-427.84354420465553	0.16933333333334302
-428.3070160197638	0.24466666666667153
-428.770510132446	0.2013333333333382
-429.2340265443025	0.1786666666666618
-429.69756525694646	0.16300000000000486
-430.16112627199124	0.11833333333333333
-430.62470959104576	0.2953333333333285
-431.08831521571466	0.15699999999999514
-431.5519431476091	0.20233333333332362
-432.0155933883424	0.11833333333333333
-432.4792659395277	0.21800000000000486
-432.9429608027654	0.19666666666666666
-433.4066779796732	0.2663333333333382
-433.87041747185987	0.24733333333332364
-434.334179280941	0.1189999999999903
-434.7979634085168	0.16666666666666666
-435.26176985620714	0.23533333333332848
-435.72559862562093	0.1289999999999903
-436.1894497183737	0.21800000000000486
-436.6533231360678	0.28066666666665696
-437.1172188803209	0.17466666666667152
-437.5811369527441	0.2260000000000097
-438.0450773549529	0.1910000000000097
-438.5090400885541	0.1896666666666715
-438.973025155161	0.20233333333332362
-439.43703255638684	0.1860000000000097
-439.90106229384924	0.08733333333332363
-440.36511436915504	0.21766666666667636
-440.82918878391536	0.21633333333333818
-441.29328553975	0.1460000000000097
-441.7574046382722	0.10566666666665697
-442.2215460810888	0.13066666666665697
-442.68570986981524	0.13
-443.1498960060691	0.1289999999999903
-443.614104491466	0.1296666666666715
-444.07833532761254	0.09433333333334304
-444.5425885161265	0.1239999999999903
-445.00686405862325	0.23300000000000484
-445.4711619567226	0.1660000000000097
-445.935482212027	0.195
-446.3998248261584	0.18699999999999514
-446.8641898007302	0.19433333333334304
-447.3285771373643	0.21233333333332363
-447.79298683766524	0.19199999999999515
-448.25741890325503	0.165
-448.72187333574703	0.18833333333333332
-449.18635013675885	0.1503333333333285
-449.65084930790806	0.1339999999999903
-450.11537085080585	0.10333333333333333
-450.5799147670698	0.10100000000000971
-451.04448105831756	0.11933333333334303
-451.5090697261711	0.008666666666661816
-451.97368077223723	0.1060000000000097
-452.4383141981357	0.09300000000000486
-452.90297000548634	0.19433333333334304
-453.36764819590894	0.057666666666676365
-453.8323487710146	0.165
-454.29707173242315	0.1789999999999903
-454.7618170817522	0.215
-455.22658482062377	0.13800000000000484
-455.6913749506467	0.14199999999999516
-456.15618747344746	0.14933333333334303
-456.6210223906392	0.13766666666667637
-457.0858797038461	0.17566666666665698
-457.55075941468147	0.18333333333333332
-458.01566152476505	0.21199999999999514
-458.48058603571457	0.2703333333333285
-458.9455329491584	0.26666666666666666
-459.41050226670126	0.20033333333332848
-459.8754939899715	0.22166666666666668
-460.3405081205869	0.215
-460.80554466017145	0.17066666666665697
-461.27060361033637	0.17166666666666666
-461.7356849727057	0.13333333333333333
-462.2007887489016	0.15433333333334304
-462.66591494054575	0.2289999999999903
-463.1310635492517	0.2103333333333285
-463.5962345766456	0.20966666666667153
-464.0614280243451	0.16266666666667637
-464.5266438939766	0.27699999999999514
-464.9918821871533	0.2489999999999903
-465.45714290550154	0.33199999999999513
-465.92242605064325	0.31233333333332364
-466.3877316242004	0.38300000000000484
-466.8530596277885	0.3446666666666715
-467.318410063036	0.2886666666666618
-467.7837829315627	0.31466666666667154
-468.24917823499277	0.31233333333332364
-468.71459597494373	0.2386666666666618
-469.18003615304195	0.23300000000000484
-469.64549877090946	0.2289999999999903
-470.1109838301681	0.2739999999999903
-470.57649133244644	0.2986666666666618
-471.0420212793577	0.2810000000000097
-471.5075736725304	0.31266666666667636
-471.9731485135887	0.2783333333333333
-472.4387458041588	0.2603333333333285
-472.90436554585847	0.285
-473.37000774031173	0.26
-473.83567238914713	0.26166666666666666
-474.3013594939909	0.3869999999999951
-474.7670690564607	0.34066666666665696
-475.2328010781829	0.3010000000000097
-475.6985555607837	0.31033333333332846
-476.16433250588943	0.29766666666667635
-476.6301319151221	0.3819999999999952
-477.0959537901058	0.29199999999999515
-477.561798132469	0.29133333333333816
-478.0276649438424	0.2833333333333333
-478.49355422583926	0.3163333333333382
-478.9594659800923	0.22333333333333333
-479.4254002082258	0.38333333333333336
-479.89135691187255	0.43266666666667636
-480.3573360926479	0.41433333333334305
-480.8233377521847	0.4786666666666618
-481.28936189210935	0.4410000000000097
-481.7554085140502	0.455
-482.22147761962714	0.3596666666666715
-482.6875692104729	0.4760000000000097
-483.1536832882138	0.47766666666667634
-483.61981985448057	0.37666666666666665
-484.08597891089505	0.4860000000000097
-484.5521604590836	0.5039999999999903
-485.0183645006812	0.3639999999999903
-485.48459103731415	0.43166666666666664
-485.9508400706044	0.5310000000000097
-486.4171116021848	0.46566666666665696
-486.88340563368376	0.49699999999999517
-487.3497221667342	0.6603333333333284
-487.81606120295794	0.529333333333343
-488.28242274398355	0.6253333333333285
-488.74880679144593	0.6186666666666618
-489.21521334697366	0.5666666666666667
-489.6816424121908	0.7136666666666618
-490.14809398872796	0.6673333333333237
-490.6145680782202	0.7283333333333334
-491.08106468229596	0.7626666666666764
-491.54758380257937	0.7380000000000049
-492.0141254407076	0.7826666666666764
-492.48068959830687	0.7383333333333333
-492.94727627700786	0.8760000000000097
-493.41388547844775	0.7866666666666666
-493.8805172042485	1.0069999999999952
-494.34717145604293	1.009333333333343
-494.813848235466	1.0110000000000097
-495.2805475441505	1.175
-495.74726938372055	1.2510000000000097
-496.2140137558112	1.2830000000000048
-496.68078066205516	1.4256666666666569
-497.1475701040875	1.4389999999999903
-497.6143820835323	1.5223333333333235
-498.0812166020267	1.66
-498.54807366120355	1.875
-499.0149532626978	2.0789999999999904
-499.48185540813364	2.0913333333333384
-499.94878009915027	2.395666666666657
-500.4157273373806	2.6336666666666617
-500.8826971244617	2.7616666666666667
-501.3496894620156	2.9863333333333384
-501.8167043516837	3.28600000000001
-502.28374179509893	3.5953333333333286
-502.75080179389835	4.001999999999995
-503.21788434970614	4.412666666666676
-503.6849894641659	4.8
-504.15211713890614	5.295333333333328
-504.6192673755683	5.696666666666666
-505.0864401757787	6.158000000000005
-505.5536355411745	6.610333333333329
-506.02085347339505	6.914333333333343
-506.48809397407314	7.232666666666677
-506.9553570448415	7.154666666666672
-507.4226426873352	7.321666666666666
-507.8899509031935	7.251666666666667
-508.35728169405576	6.920333333333328
-508.8246350615461	6.513666666666662
-509.2920110073081	6.20399999999999
-509.7594095329768	5.681999999999995
-510.22683064019367	5.327666666666676
-510.6942743305851	4.7886666666666615
-511.1617406057946	4.381999999999995
-511.62922946745715	3.9323333333333235
-512.0967409172122	3.5166666666666666
-512.5642749566924	3.21399999999999
-513.0318315875372	2.879333333333343
-513.4994108113838	2.588666666666662
-513.9670126298691	2.3160000000000096
-514.4346370446391	2.1423333333333234
-514.9022840573178	1.8689999999999902
-515.3699536695513	1.81
-515.8376458829763	1.5436666666666619
-516.3053606992369	1.4333333333333333
-516.7730981199612	1.2510000000000097
-517.2408581467931	1.2610000000000097
-517.7086407813741	1.1273333333333235
-518.1764460253412	1.07
-518.6442738803315	1.0133333333333334
-519.1121243479846	0.8806666666666569
-519.5799974299438	0.8460000000000097
-520.0478931278486	0.8063333333333382
-520.5158114433318	0.6980000000000048
-520.9837523780393	0.7619999999999951
-521.4517159336124	0.7430000000000049
-521.9197021116904	0.6953333333333285
-522.3877109139106	0.6966666666666667
-522.8557423419145	0.7369999999999951
-523.3237963973435	0.6356666666666569
-523.7918730818434	0.6439999999999902
-524.2599723970492	0.57
-524.7280943446024	0.5989999999999903
-525.1962389261444	0.575
-525.6644061433254	0.5689999999999903
-526.132595997774	0.5933333333333334
-526.6008084911402	0.6053333333333285
-527.0690436250634	0.4453333333333285
-527.5373014011916	0.3903333333333285
-528.0055818211553	0.31333333333333335
-528.4738848866069	0.3860000000000097
-528.9422105991858	0.3516666666666667
-529.4105589605377	0.3496666666666715
-529.8789299722998	0.3689999999999903
-530.3473236361201	0.2796666666666715
-530.8157399536378	0.2646666666666715
-531.2841789265054	0.36
-531.7526405563557	0.3360000000000097
-532.2211248448366	0.31333333333333335
-532.6896317935916	0.3186666666666618
-533.1581614042711	0.3169999999999952
-533.6267136785101	0.3889999999999903
-534.0952886179564	0.27
-534.5638862242538	0.32166666666666666
-535.0325064990544	0.285
-535.5011494439935	0.3139999999999903
-535.9698150607188	0.3060000000000097
-536.4385033508763	0.2953333333333285
-536.9072143161118	0.2563333333333382
-537.3759479580754	0.25833333333333336
-537.8447042784043	0.2896666666666715
-538.3134832787485	0.2360000000000097
-538.782284960754	0.20633333333333817
-539.251109326071	0.2153333333333285
-539.7199563763363	0.2646666666666715
-540.1888261132026	0.20733333333332363
-540.6577185383156	0.30966666666667153
-541.1266336533254	0.19266666666667637
-541.5955714598736	0.175
-542.0645319596101	0.18266666666667636
-542.533515154181	0.14166666666666666
-543.0025210452385	0.20533333333332848
-543.471549634422	0.21166666666666667
-543.9406009233837	0.195
-544.4096749137716	0.19266666666667637
-544.8787716072381	0.25300000000000483
-545.3478910054247	0.23699999999999516
-545.8170331099792	0.22066666666665696
-546.2861979225542	0.12166666666666667
-546.7553854448018	0.13966666666667152
-547.2245956783636	0.11233333333332363
-547.6938286248898	0.14266666666667638
-548.1630842860326	0.02733333333332363
-548.6323626634443	0.05199999999999515
-549.1016637587664	0.165
-549.5709875736515	0.12433333333334304
-550.0403341097515	0.06833333333333333
-550.5097033687211	0.07033333333332849
-550.9790953521997	0.18199999999999514
-551.4485100618417	0.08766666666667637
-551.9179474992993	0.1
-552.3874076662273	0.0460000000000097
-552.8568905642691	0.08800000000000485
-553.326396195077	0.017333333333323632
-553.7959245603034	0.085
-554.2654756616051	0.05466666666667152
-554.7350495006234	0.0610000000000097
-555.2046460790151	0.12166666666666667
-555.6742653984302	0.056666666666666664
-556.1439074605275	0.19233333333332364
-556.6135722669509	0.1239999999999903
-557.0832598193547	0.17266666666667638
-557.5529701193913	0.15666666666666668
-558.0227031687151	0.08800000000000485
-558.4924589689829	0.11066666666665696
-558.9622375218382	0.07566666666665696
-559.4320388289378	0.09233333333332364
-559.901862891936	-0.03800000000000485
-560.3717097124897	0.07066666666665697
-560.8415792922447	0.06133333333333819
-561.3114716328574	-0.057666666666676365
-561.7813867359847	0.050333333333328484
-562.2513246032833	-0.0010000000000097012
-562.7212852363965	0.03866666666666182
-563.1912686369857	0.01
-563.6612748067051	0.18166666666666667
-564.1313037472138	0.10466666666667152
-564.6013554601575	0.12466666666667152
-565.0714299471971	0.11833333333333333
-565.5415272099829	0.095
-566.0116472501801	0.13266666666667637
-566.4817900694323	0.10366666666666181
-566.9519556694008	0.0410000000000097
-567.4221440517421	0.12366666666666182
-567.8923552181149	0.17266666666667638
-568.3625891701673	0.07433333333334304
-568.8328459095582	0.06666666666666667
-569.3031254379463	0.07533333333332848
-569.7734277569925	0.14333333333333334
-570.2437528683452	0.15800000000000486
-570.7141007736628	0.16699999999999515
-571.1844714746044	0.0989999999999903
-571.6548649728329	0.17
-572.1252812699944	0.10199999999999515
-572.5957203677541	0.008333333333333333
-573.0661822677644	0.12433333333334304
-573.5366669716926	0.07233333333332363
-574.007174481187	0.09266666666667636
-574.4777047979082	0.02266666666667637
-574.9482579235155	0.13566666666665697
-575.4188338596717	0.09
-575.889432608027	0.12199999999999515
-576.360054170247	0.06300000000000484
-576.8306985479859	0.06333333333333334
-577.3013657429113	0.05966666666667152
-577.7720557566712	0.1510000000000097
-578.242768590931	0.11933333333334303
-578.7135042473494	0.11833333333333333
-579.1842627275896	0.09766666666667637
-579.6550440333061	0.10133333333333819
-580.1258481661622	0.11166666666666666
-580.5966751278165	0.1139999999999903
-581.0675249199302	0.14766666666667635
-581.5383975441686	0.10133333333333819
-582.0092930021859	0.10300000000000485
-582.4802112956436	0.125
-582.9511524262044	0.1486666666666618
-583.422116395534	0.09933333333334303
-583.8931032052844	0.075
-584.3641128571234	0.059333333333343036
-584.8351453527096	0.09699999999999515
-585.3062006937128	0.058666666666661815
-585.7772788817853	0.065
-586.2483799185924	0.1386666666666618
-586.7195038057973	-0.002333333333323632
-587.1906505450675	0.06166666666666667
-587.6618201380553	-0.0019999999999951493
-588.1330125864282	0.0789999999999903
-588.6042278918516	0.02733333333332363
-589.0754660559908	0.07199999999999515
-589.5467270805024	-0.03133333333333818
-590.0180109670519	0.0610000000000097
-590.4893177173043	0.06133333333333819
-590.9606473329275	0.0560000000000097
-591.4319998155779	0.05699999999999515
-591.9033751669209	0.03966666666667152
-592.3747733886241	0.10833333333333334
-592.8461944823549	0.03699999999999515
-593.3176384497699	0.1239999999999903
-593.7891052925389	0.045
-594.2605950123251	0.02199999999999515
-594.732107610798	0.04633333333333818
-595.2036430896144	0.033666666666661814
-595.6752014504461	0.14933333333334303
-596.1467826949563	0.07300000000000485
-596.6183868248166	0.050333333333328484
-597.090013841684	-0.014333333333343034
-597.5616637472281	0.03866666666666182
-598.0333365431163	0.1089999999999903
-598.5050322310183	0.04633333333333818
-598.9767508125929	0.07733333333332364
-599.4484922895119	0.15066666666665696
-599.9202566634386	0.1310000000000097
-600.3920439360492	0.20266666666667638
-600.863854108998	0.07233333333332363
-601.3356871839613	0.09733333333332363
-601.8075431626023	0.20166666666666666
-602.2794220465906	0.12199999999999515
-602.7513238376002	0.21300000000000485
-603.2232485372857	0.14766666666667635
-603.6951961473254	0.25566666666665694
-604.1671666693824	0.10199999999999515
-604.6391601051329	0.14566666666665695
-605.1111764562378	0.23766666666667638
-605.583215724367	0.07833333333333334
-606.05527791119	0.1
-606.5273630183831	0.11133333333333818
-606.999471047605	0.1239999999999903
-607.4716020005297	0.07766666666667636
-607.943755878825	0.145
-608.4159326841688	0.1713333333333382
-608.8881324182223	0.14666666666666667
-609.3603550826554	0.1410000000000097
-609.8326006791439	0.22966666666667152
-610.3048692093575	0.155
-610.7771606749619	0.15699999999999514
-611.2494750776308	0.14066666666665698
-611.721812419036	0.14933333333334303
-612.1941727008518	0.15766666666667636
-612.6665559247411	0.08699999999999515
-613.1389620923824	0.09533333333332848
-613.611391205443	0.05533333333332848
-614.0838432656016	0.10699999999999515
-614.5563182745187	0.07766666666667636
-615.0288162338753	0.06966666666667151
-615.5013371453408	0.16733333333332362
-615.9738810105914	0.035666666666656965
-616.4464478312925	0.07233333333332363
-616.9190376091203	0.11066666666665696
-617.3916503457488	0.10633333333333818
-617.864286042854	0.07366666666666181
-618.3369447021014	0.0310000000000097
-618.8096263251693	0.07633333333333818
-619.2823309137297	0.036333333333338186
-619.7550584694607	0.09533333333332848
-620.2278089940298	0.12766666666667636
-620.7005824891135	0.051333333333338185
-621.1733789563854	0.0689999999999903
-621.6461983975241	0.07
-622.1190408141993	0.07733333333332364
-622.5919062080848	0.02666666666666667
-623.0647945808612	0.05633333333333818
-623.5377059342026	0.028999999999990297
-624.0106402697763	0.07133333333333819
-624.4835975892653	0.06933333333334303
-624.9565778943412	0.03933333333334303
-625.4295811866824	0.085
-625.9026074679693	0.16966666666667152
-626.3756567398653	0.11300000000000485
-626.8487290040574	0.1389999999999903
-627.321824262215	0.06233333333332363
-627.7949425160232	0.09366666666666182
-628.2680837671494	-0.011000000000009702
-628.7412480172742	0.007333333333323632
-629.2144352680758	0.0810000000000097
-629.6876455212326	0.025333333333328482
-630.1608787784166	0.17300000000000484
-630.6341350413081	0.041666666666666664
-631.1074143115856	0.10466666666667152
-631.5807165909295	0.09966666666667151
-632.0540418810094	0.15366666666666182
-632.5273901835083	0.115
-633.0007615001064	0.07
-633.4741558324843	0.19300000000000486
-633.9475731823117	0.10266666666667637
-634.4210135512734	0.16833333333333333
-634.8944769410457	0.18066666666665696
-635.3679633533155	0.1110000000000097
-635.8414727897504	0.14033333333332848
-636.315005252035	0.12033333333332848
-636.7885607418502	0.009333333333343035
-637.2621392608784	0.07666666666666666
-637.7357408107915	0.059333333333343036
-638.2093653932745	0.09300000000000486
-638.6830130100077	0.09933333333334303
-639.1566836626739	0.07699999999999516
-639.6303773529492	0.08633333333333819
-640.104094082512	0.09533333333332848
-640.5778338530494	0.07133333333333819
-641.0515966662439	0.08833333333333333
-641.5253825237696	0.05566666666665696
-641.9991914273114	0.08199999999999515
-642.4730233785497	0.11833333333333333
-642.9468783791716	0.19033333333332847
-643.4207564308512	0.007666666666676368
-643.894657535273	0.09933333333334303
-644.3685816941202	0.10533333333332848
-644.8425289090794	0.10966666666667152
-645.3164991818247	0.014666666666671517
-645.7904925140433	0.02666666666666667
-646.2645089074176	0.07566666666665696
-646.7385483636306	0.05266666666667637
-647.2126108843712	0.06633333333333818
-647.6866964713114	0.02699999999999515
-648.1608051261403	0.10233333333332363
-648.6349368505428	0.08633333333333819
-649.1090916462059	0.09966666666667151
-649.5832695148059	0.1660000000000097
-650.0574704580297	0.1660000000000097
-650.5316944775642	0.09300000000000486
-651.0059415750944	0.059333333333343036
-651.4802117522987	0.12199999999999515
-651.9545050108684	0.08533333333332849
-652.4288213524839	0.14666666666666667
-652.9031607788367	0.17166666666666666
-653.377523291605	0.09966666666667151
-653.851908892476	0.0560000000000097
-654.3263175831366	0.0889999999999903
-654.8007493652782	0.09300000000000486
-655.275204240577	0.0889999999999903
-655.7496822107221	0.08566666666665697
-656.2241832774027	0.23333333333333334
-656.6987074423081	0.12833333333333333
-657.1732547071144	0.022333333333323633
-657.647825073515	0.07733333333332364
-658.1224185431972	0.043666666666661816
-658.5970351178521	0.02300000000000485
-659.071674799156	0.05533333333332848
-659.5463375888046	0.05199999999999515
-660.0210234884827	0.028333333333333332
-660.4957324998816	0.02733333333332363
-660.970464624684	0.09366666666666182
-661.4452198645815	-0.058333333333333334
-661.9199982212587	-0.050666666666656965
-662.3947996964134	0.012666666666676369
-662.8696242917221	-0.0639999999999903
-663.3444720088801	-0.04233333333332363
-663.8193428495747	-0.012333333333323633
-664.2942368154993	0.08033333333332848
-664.7691539083344	0.019333333333343035
-665.2440941297757	0.021000000000009702
-665.7190574815126	0.026333333333338184
-666.1940439652361	0.07100000000000971
-666.6690535826314	0.02300000000000485
-667.1440863353895	-0.030333333333328483
-667.6191422252042	0.07699999999999516
-668.0942212537668	-0.0060000000000097016
-668.5693234227599	0.0539999999999903
-669.0444487338814	0.07333333333333333
-669.5195971888182	0.1139999999999903
-669.9947687892642	0.0439999999999903
-670.4699635369146	0.07833333333333334
-670.9451814334525	0.07566666666665696
-671.4204224805712	0.08766666666667637
-671.8956866799642	0.023666666666661815
-672.3709740333295	0.105
-672.8462845423476	0.021000000000009702
-673.3216182087161	0.06366666666666182
-673.7969750341267	0.10933333333334304
-674.2723550202793	0.14033333333332848
-674.7477581688544	0.18
-675.2231844815498	0.16
-675.6986339600613	0.018666666666661814
-676.1741066060845	0.09866666666666181
-676.6496024213021	0.058333333333333334
-677.1251214074143	-0.0060000000000097016
-677.6006635661165	-0.03233333333332363
-678.0762288991046	0.11266666666667637
-678.5518174080635	-0.01
-679.0274290946908	0.06466666666667152
-679.5030639606846	-0.004666666666671517
-679.9787220077426	0.10800000000000486
-680.4544032375497	0.014666666666671517
-680.9301076518038	0.09033333333332848
-681.4058352522029	-0.04699999999999515
-681.8815860404445	0.04533333333332848
-682.3573600182182	0.08166666666666667
-682.8331571872193	0.02199999999999515
-683.308977549148	0.03166666666666667
-683.7848211057002	0.05533333333332848
-684.2606878585669	0.0910000000000097
-684.7365778094462	0.02033333333332848
-685.2124909600358	0.004333333333343035
-685.688427312038	0.018666666666661814
-686.1643868671355	0.06066666666665697
-686.640369627037	0.05566666666665696
-687.1163755934316	0.058999999999990296
-687.592404768028	0.08366666666666181
-688.0684571525112	0.02
-688.5445327485811	0.08199999999999515
-689.0206315579399	0.0489999999999903
-689.4967535822876	0.034666666666671515
-689.9728988233136	0.12066666666665697
-690.4490672827199	0.21766666666667636
-690.9252589622043	0.13933333333334302
-691.4014738634692	0.08933333333334303
-691.8777119882124	0.06866666666666181
-692.3539733381273	0.2089999999999903
-692.8302579149183	0.060333333333328486
-693.3065657202812	0.0660000000000097
-693.782896755916	0.051666666666666666
-694.2592510235271	0.05800000000000485
-694.7356285248057	0.011666666666666667
-695.2120292614607	-0.03
-695.6884532351831	-0.06433333333334304
-696.1649004476822	0.020666666666656966
-696.6413709006488	0.08199999999999515
-697.1178645957918	0.05800000000000485
-697.5943815348027	0.0189999999999903
-698.0709217193943	0.10566666666665697
-698.547485151258	0.03233333333332363
-699.0240718320983	-0.07199999999999515
-699.5006817636153	-0.02699999999999515
-699.977314947513	0.005
-700.4539713854917	0.028333333333333332
-700.9306510792559	-0.023666666666661815
-701.4073540305009	0.018333333333333333
-701.8840802409356	0.013333333333333334
-702.3608297122558	-0.036333333333338186
-702.8376024461702	0.025666666666656967
-703.3143984443786	0.08600000000000971
-703.7912177085856	0.043333333333333335
-704.2680602404868	0.08566666666665697
-704.7449260417994	0.13266666666667637
-705.221815114215	0.07366666666666181
-705.6987274594424	-0.019666666666671516
-706.1756630791813	0.10666666666666667
-706.6526219751405	0.09933333333334303
-707.1296041490159	0.044333333333343036
-707.6066096025246	0.08266666666667637
-708.0836383373583	-0.007333333333323632
-708.5606903552296	0.04800000000000485
-709.0377656578345	0.1386666666666618
-709.5148642468903	0.022333333333323633
-709.9919861240926	0.06933333333334303
-710.4691312911503	0.04766666666667637
-710.9462997497633	0.03833333333333333
-711.4234915016445	-0.005
-711.9007065484986	-0.02
-712.3779448920254	0.013999999999990298
-712.855206533938	0.08066666666665696
-713.3324914759364	0.05733333333332363
-713.8097997197294	0.01699999999999515
-714.2871312670255	0.07666666666666666
-714.7644861195292	0.11433333333334303
-715.2418642789494	0.043666666666661816
-715.71926574699	0.05533333333332848
-716.19669052536	0.09266666666667636
-716.6741386157682	0.0489999999999903
-717.1516100199144	0.05366666666666182
-717.6291047395205	-0.08433333333334303
-718.1066227762776	0.012666666666676369
-718.5841641319076	0.03133333333333818
-719.0617288081106	0.13466666666667151
-719.5393168065996	0.03933333333334303
-720.0169281290788	0.026000000000009703
-720.4945627772613	0.04033333333332848
-720.9722207528516	0.15933333333334304
-721.4499020575627	0.08866666666666181
-721.9276066930988	0.10766666666667636
-722.4053346611774	0.1739999999999903
-722.8830859634986	0.06633333333333818
-723.3608606017754	0.08033333333332848
-723.8386585777207	0.1363333333333382
-724.3164798930433	0.11166666666666666
-724.7943245494477	0.09833333333333333
-725.272192548651	0.0539999999999903
-725.7500838923621	-0.08366666666666181
-726.2279985822896	0.03333333333333333
-726.7059366201466	0.07766666666667636
-727.1838980076462	0.16
-727.6618827464928	0.13566666666665697
-728.1398908384035	0.11466666666667152
-728.6179222850873	0.008999999999990299
-729.095977088257	0.12800000000000486
-729.5740552496214	0.004333333333343035
-730.052156770898	-0.056666666666666664
-730.5302816537911	0.06433333333334304
-731.0084299000223	0.06966666666667151
-731.4866015113004	-0.006666666666666667
-731.964796489334	0.0003333333333284827
-732.4430148358406	-0.0160000000000097
-732.9212565525332	0.010333333333328483
-733.3995216411205	0.026333333333338184
-733.8778101033242	-0.03333333333333333
-734.3561219408443	-0.015333333333328482
-734.8344571554113	0.025666666666656967
-735.3128157487251	0.034333333333343034
-735.7911977225033	0.05466666666667152
-736.2696030784673	0.028666666666661816
-736.7480318183216	0.042666666666676366
-737.2264839437879	0.06433333333334304
-737.7049594565793	0.022333333333323633
-738.1834583584089	0.1363333333333382
-738.6619806509894	0.14933333333334303
-739.1405263360386	0.07800000000000486
-739.6190954152737	0.11166666666666666
-740.0976878904078	0.10733333333332364
-740.5763037631581	0.05566666666665696
-741.054943035242	0.08533333333332849
-741.5336057083684	0.14233333333332363
-742.0122917842632	0.09199999999999516
-742.4910012646309	0.11033333333332848
-742.9697341512017	0.16333333333333333
-743.44849044568	0.04633333333333818
-743.927270149792	0.11166666666666666
-744.4060732652506	0.09133333333333818
-744.8848997937732	0.06633333333333818
-745.3637497370773	0.07933333333334304
-745.8426230968801	0.09300000000000486
-746.3215198748991	-0.014666666666671517
-746.8004400728515	0.052333333333323635
-747.2793836924593	-0.033666666666661814
-747.7583507354353	0.018333333333333333
-748.2373412035014	0.05333333333333334
-748.716355098379	-0.04466666666667152
-749.1953924217772	0.058333333333333334
-749.6744531754217	0.02800000000000485
-750.1535373610302	0.07233333333332363
-750.6326449803285	0.0739999999999903
-751.111776035021	0.03966666666667152
-751.5909305268425	0.03266666666667637
-752.0701084575018	0.0539999999999903
-752.5493098287246	0.08566666666665697
-753.0285346422287	0.018333333333333333
-753.5077828997398	-0.01699999999999515
-753.987054602967	-0.05366666666666182
-754.4663497536402	-0.016333333333338185
-754.9456683534771	-0.05
-755.4250104042037	-0.02266666666667637
-755.9043759075286	-0.10766666666667636
-756.3837648651867	-0.11933333333334303
-756.8631772788864	-0.04566666666665697
-757.3426131503628	0.04
-757.8220724813286	0.049666666666671515
-758.3015552735102	0.1039999999999903
-758.7810615286247	0.11566666666665697
-759.2605912483939	0.10333333333333333
-759.7401444345481	0.007333333333323632
-760.2197210888049	0.07633333333333818
-760.6993212128901	0.14566666666665695
-761.1789448085212	0.14166666666666666
-761.6585918774243	0.09366666666666182
-762.1382624213211	0.14566666666665695
-762.6179564419375	0.08600000000000971
-763.0976739409954	0.10699999999999515
-763.5774149202207	0.06466666666667152
-764.0571793813351	0.08199999999999515
-764.5369673260649	0.07433333333334304
-765.0167787561315	0.08166666666666667
-765.4966136732611	-0.017333333333323632
-765.9764720791754	0.09133333333333818
-766.4563539756049	0.06066666666665697
-766.9362593642668	-0.0033333333333333335
-767.4161882468959	0.016333333333338185
-767.8961406252051	0.0460000000000097
-768.3761165009338	-0.02033333333332848
-768.856115875799	0.07633333333333818
-769.336138751527	-0.010666666666656966
-769.8161851298437	0.06233333333332363
-770.2962550124796	-0.012666666666676369
-770.7763484011564	-0.009333333333343035
-771.2564652976043	0.015
-771.7366057035454	0.029666666666671518
-772.2167696207097	-0.005666666666656966
-772.6969570508234	0.035666666666656965
-773.1771679956125	0.035
-773.6574024568075	0.02666666666666667
-774.1376604361301	0.08800000000000485
-774.6179419353149	0.005333333333328483
-775.0982469560837	0.06266666666667636
-775.578575500167	0.03333333333333333
-776.0589275692992	0.07233333333332363
-776.5393031651936	0.0339999999999903
-777.0197022895935	-0.09300000000000486
-777.5001249442207	0.050333333333328484
-777.9805711308056	0.03800000000000485
-778.4610408510741	0.07166666666666667
-778.941534106761	0.04866666666666181
-779.422050899588	0.08733333333332363
-779.9025912312899	0.105
-780.383155103597	0.1510000000000097
-780.8637425182397	0.13466666666667151
-781.3443534769441	0.2389999999999903
-781.8249879814406	0.11033333333332848
-782.3056460334637	0.16199999999999515
-782.7863276347398	0.049333333333343034
-783.2670327870034	0.0660000000000097
-783.7477614919806	0.009333333333343035
-784.2285137514104	-0.03833333333333333
-784.7092895670147	-0.03866666666666182
-785.190088940528	0.09066666666665696
-785.6709118736851	0.09800000000000485
-786.1517583682121	0.04033333333332848
-786.632628425848	0.10433333333334303
-787.1135220483189	0.008666666666661816
-787.5944392373596	0.1596666666666715
-788.0753799947003	0.10166666666666667
-788.5563443220758	0.1260000000000097
-789.0373322212208	0.08733333333332363
-789.5183436938614	0.08433333333334303
-789.9993787417368	0.08033333333332848
-790.4804373665771	0.0689999999999903
-790.9615195701215	0.10300000000000485
-791.4426253540961	0.013666666666661815
-791.9237547202398	-0.03333333333333333
-792.4049076702788	0.12
-792.8860842059564	0.026333333333338184
-793.3672843290032	-0.02199999999999515
-793.8485080411537	0.075
-794.3297553441382	0.049666666666671515
-794.8110262397004	0.1160000000000097
-795.2923207295705	0.029333333333343033
-795.7736388154832	0.03233333333332363
-796.2549804991734	0.051333333333338185
-796.7363457823756	0.07733333333332364
-797.217734666829	0.03766666666667637
-797.6991471542682	-0.07366666666666181
-798.180583246428	0.09166666666666666
-798.6620429450433	0.08033333333332848
-799.1435262518528	0.021333333333338183
-799.6250331685959	0.105
-800.1065636969985	0.11933333333334303
-800.5881178388125	0.0939999999999903
-801.06969559576	0.12166666666666667
-801.5512969695884	0.09699999999999515
-802.0329219620326	0.03966666666667152
-802.5145705748272	0.1360000000000097
-802.9962428097114	0.06699999999999515
-803.4779386684241	0.05433333333334303
-803.9596581527046	0.050666666666656965
-804.4414012642874	0.1410000000000097
-804.9231680049115	0.0410000000000097
-805.4049583763206	0.05966666666667152
-805.8867723802448	0.058999999999990296
-806.368610018432	0.027666666666676366
-806.8504712926126	0.034333333333343034
-807.3323562045299	0.04233333333332363
-807.8142647559273	0.01699999999999515
-808.2961969485352	-0.009333333333343035
-808.7781527841014	0.09133333333333818
-809.2601322643649	0.11466666666667152
-809.7421353910604	0.0389999999999903
-810.2241621659313	-0.0060000000000097016
-810.7062125907211	-0.013333333333333334
-811.1882866671644	0.05333333333333334
-811.6703843970047	0.006999999999995149
-812.1525057819853	0.025
-812.634650823841	0.03699999999999515
-813.1168195243196	-0.0033333333333333335
-813.5990118851643	-0.001333333333338184
-814.0812279081055	-0.033666666666661814
-814.5634675948954	0.03
-815.0457309472688	-0.004333333333343035
-815.5280179669776	-0.060333333333328486
-816.0103286557522	-0.007666666666676368
-816.4926630153448	-0.011333333333338184
-816.9750210474899	-0.006666666666666667
-817.4574027539397	-0.021000000000009702
-817.9398081364247	-0.044333333333343036
-818.4222371967012	-0.07366666666666181
-818.9046899365038	0.03
-819.3871663575804	-0.06166666666666667
-819.8696664616701	0.015
