768.7678709118609	0.26
768.3601795435875	0.008333333333333333
767.9524697795084	0.15266666666667636
767.5447416183789	0.1960000000000097
767.1369950589522	0.15633333333333818
766.7292300999793	0.16733333333332362
766.321446740222	0.18699999999999514
765.9136449784291	0.11300000000000485
765.5058248133583	0.12666666666666668
765.0979862437583	0.08733333333332363
764.6901292683908	0.0639999999999903
764.2822538860049	0.057666666666676365
763.8743600953579	0.04066666666665696
763.4664478951966	0.09033333333332848
763.0585172842827	0.10433333333334303
762.6505682613673	0.0960000000000097
762.2426008252036	0.13366666666666183
761.8346149745404	0.15133333333333818
761.4266107081372	0.12266666666667637
761.0185880247452	0.09866666666666181
760.6105469231176	0.15233333333332363
760.202487402003	0.13733333333332362
759.7944094601592	0.13800000000000484
759.3863130963391	0.13266666666667637
758.9781983092939	0.043000000000004854
758.5700650977723	0.10966666666667152
758.1619134605319	0.11966666666667151
757.7537433963257	0.09033333333332848
757.3455549039006	0.09
756.9373479820074	0.17466666666667152
756.529122629406	0.13800000000000484
756.1208788448427	0.09866666666666181
755.7126166270709	0.19666666666666666
755.3043359748374	0.0760000000000097
754.8960368869017	0.07333333333333333
754.4877193620104	0.11033333333332848
754.0793833989146	0.1139999999999903
753.671028996363	0.051666666666666666
753.2626561531134	0.07199999999999515
752.8542648679122	0.15066666666665696
752.4458551395104	0.14633333333333817
752.0374269666613	0.14233333333332363
751.6289803481072	0.19133333333333818
751.2205152826077	0.09666666666666666
750.8120317689096	0.07866666666666182
750.4035298057637	0.10833333333333334
749.9950093919146	0.05800000000000485
749.586470526122	0.19333333333333333
749.1779132071304	0.11233333333332363
748.7693374336906	0.02699999999999515
748.3607432045474	0.09366666666666182
747.9521305184559	0.045
747.5434993741673	0.15600000000000971
747.134849770426	0.02733333333332363
746.7261817059784	0.1436666666666618
746.3174951795825	0.1110000000000097
745.9087901899825	0.07366666666666181
745.500066735925	0.13366666666666183
745.091324816159	0.18666666666666668
744.6825644294398	0.06766666666667637
744.2737855745097	0.11933333333334303
743.8649882501174	0.1839999999999903
743.4561724550099	0.08233333333332363
743.0473381879422	0.12666666666666668
742.6384854476568	0.21633333333333818
742.2296142329003	0.12933333333334304
741.8207245424215	0.08966666666667152
741.4118163749715	0.1310000000000097
741.002889729297	0.11766666666667637
740.5939446041443	0.0989999999999903
740.1849809982541	0.11333333333333333
739.7759989103856	0.07
739.3669983392814	0.12
738.957979283686	0.10833333333333334
738.5489417423437	0.13333333333333333
738.13988571401	0.16199999999999515
737.730811197425	0.058333333333333334
737.3217181913398	0.10366666666666181
736.9126066944921	0.09933333333334303
736.5034767056397	0.043000000000004854
736.0943282235205	0.09199999999999516
735.6851612468854	0.08366666666666181
735.2759757744748	0.058999999999990296
734.8667718050416	0.060333333333328486
734.4575493373283	0.10300000000000485
734.0483083700792	0.08333333333333333
733.6390489020412	0.05333333333333334
733.2297709319565	0.06066666666665697
732.8204744585761	0.11933333333334303
732.4111594806445	0.07100000000000971
732.0018259969019	0.08833333333333333
731.5924740060949	0.08433333333334303
731.1831035069702	0.10533333333332848
730.7737144982744	0.13266666666667637
730.3643069787478	0.059333333333343036
729.9548809471348	0.07333333333333333
729.5454364021842	0.005
729.1359733426384	0.1310000000000097
728.7264917672396	0.07033333333332849
728.3169916747303	0.06433333333334304
727.9074730638592	0.016666666666666666
727.4979359333709	0.049666666666671515
727.0883802820032	0.07966666666667152
726.6788061085008	0.0910000000000097
726.2692134116146	0.05366666666666182
725.8596021900805	0.09366666666666182
725.449972442645	0.055
725.0403241680441	0.11333333333333333
724.630657365033	0.05566666666665696
724.2209720323476	0.03699999999999515
723.8112681687303	0.2239999999999903
723.4015457729232	0.03233333333332363
722.9918048436731	0.05199999999999515
722.5820453797202	0.024666666666671517
722.1722673798067	0.155
721.7624708426707	0.06
721.3526557670632	0.07966666666667152
720.94282215172	0.025666666666656967
720.5329699953855	0.11233333333332363
720.1230992967957	0.029333333333343033
719.7132100547013	0.11033333333332848
719.3033022678385	0.06733333333332363
718.8933759349494	0.07233333333332363
718.4834310547741	0.07800000000000486
718.0734676260573	0.012666666666676369
717.6634856475368	0.11166666666666666
717.2534851179572	0.10733333333332364
716.8434660360522	0.10466666666667152
716.4334284005727	0.08800000000000485
716.0233722102523	0.11833333333333333
715.6132974638334	0.06166666666666667
715.2032041600562	0.095
714.7930922976565	0.05466666666667152
714.3829618753853	0.09800000000000485
713.9728128919741	0.07199999999999515
713.562645346165	0.13466666666667151
713.1524592366941	0.1110000000000097
712.7422545623102	0.043000000000004854
712.3320313217469	0.042666666666676366
711.9217895137442	0.07633333333333818
711.5115291370382	0.07466666666667152
711.1012501903754	0.0489999999999903
710.6909526724916	0.08
710.2806365821249	0.1039999999999903
709.870301918011	0.05199999999999515
709.4599486788967	0.1253333333333285
709.0495768635155	0.105
708.6391864706077	0.051666666666666666
708.228777498909	0.030333333333328483
707.8183499471618	0.08466666666667151
707.4079038141018	0.0389999999999903
706.9974390984672	0.16333333333333333
706.5869557989937	0.14033333333332848
706.1764539144258	0.057666666666676365
705.7659334434971	0.18866666666666182
705.3553943849456	0.09766666666667637
704.9448367375052	0.13566666666665697
704.5342604999221	0.16066666666665697
704.123665670926	0.09166666666666666
703.7130522492591	0.14666666666666667
703.3024202336507	0.057666666666676365
702.8917696228474	0.10300000000000485
702.4811004155808	0.10533333333332848
702.0704126105888	-0.004666666666671517
701.6597062066053	0.06933333333334303
701.2489812023722	0.050333333333328484
700.8382375966235	0.14066666666665698
700.4274753880926	0.0939999999999903
700.0166945755177	0.17333333333333334
699.6058951576366	0.08233333333332363
699.1950771331854	0.1539999999999903
698.7842405008996	0.07100000000000971
698.3733852595066	0.10633333333333818
697.962511407755	0.058666666666661815
697.5516189443744	0.13366666666666183
697.1407078681002	0.0006666666666569654
696.7297781776643	0.050333333333328484
696.3188298718089	0.11033333333332848
695.9078629492653	0.03666666666666667
695.4968774087696	0.06833333333333333
695.0858732490532	0.1436666666666618
694.6748504688518	0.051666666666666666
694.2638090669034	0.058999999999990296
693.8527490419395	0.075
693.4416703926984	0.14533333333332848
693.0305731179045	0.2010000000000097
692.6194572163027	0.06266666666667636
692.2083226866246	0.011333333333338184
691.7971695276012	0.07733333333332364
691.3859977379644	0.058666666666661815
690.9748073164542	0.05966666666667152
690.563598261802	0.003666666666661816
690.1523705727373	0.14
689.7411242479958	0.03300000000000485
689.3298592863133	0.06966666666667151
688.9185756864193	0.05199999999999515
688.5072734470516	0.1789999999999903
688.095952566933	0.18733333333332364
687.6846130448081	0.09666666666666666
687.273254879404	0.10166666666666667
686.8618780694522	0.105
686.4504826136841	0.06966666666667151
686.0390685108379	0.09633333333333818
685.6276357596405	0.09033333333332848
685.216184358828	0.029333333333343033
684.804714307125	0.04
684.3932256032718	0.07933333333334304
683.981718245998	0.08600000000000971
683.5701922340304	0.11333333333333333
683.1586475661029	0.135
682.747084240951	0.13433333333334305
682.3355022573022	0.09166666666666666
681.9239016138878	0.13933333333334302
681.5122823094371	0.12366666666666182
681.100644342686	0.17833333333333334
680.6889877123616	0.19766666666667637
680.2773124171954	0.13366666666666183
679.8656184559145	0.17233333333332362
679.4539058272569	0.22266666666667637
679.0421745299477	0.28199999999999514
678.6304245627183	0.16199999999999515
678.2186559242936	0.09066666666665696
677.8068686134138	0.09166666666666666
677.395062628804	0.1089999999999903
676.9832379691933	0.2013333333333382
676.5713946333069	0.04466666666667152
676.1595326198826	0.13699999999999515
675.7476519276477	0.1689999999999903
675.3357525553292	0.22933333333334305
674.9238345016566	0.20766666666667638
674.5118977653547	0.07666666666666666
674.0999423451638	0.17
673.6879682398022	0.2239999999999903
673.2759754480059	0.32066666666665694
672.8639639684933	0.22066666666665696
672.4519338000044	0.21833333333333332
672.0398849412645	0.2336666666666618
671.6278173909984	0.2676666666666764
671.2157311479332	0.1646666666666715
670.8036262108026	0.16
670.3915025783316	0.1853333333333285
669.9793602492473	0.105
669.5671992222748	0.15199999999999514
669.1550194961476	0.1589999999999903
668.7428210695929	0.050333333333328484
668.3306039413335	0.10766666666667636
667.9183681100944	0.13300000000000486
667.5061135746137	0.2139999999999903
667.0938403336097	0.18066666666665696
666.6815483858096	0.16933333333334302
666.2692377299405	0.19866666666666183
665.856908364734	0.16133333333333819
665.4445602889106	0.15600000000000971
665.0321935011997	0.0939999999999903
664.6198080003242	0.1539999999999903
664.2074037850176	0.14833333333333334
663.7949808539984	0.08766666666667637
663.3825392059981	0.1546666666666715
662.9700788397353	0.025
662.5575997539434	-0.014333333333343034
662.1451019473432	0.13300000000000486
661.732585418664	0.06566666666665696
661.3200501666242	0.10933333333334304
660.9074961899598	0.18
660.494923487387	0.19966666666667152
660.0823320576351	0.2386666666666618
659.6697218994246	0.16966666666667152
659.2570930114873	0.18766666666667636
658.8444453925414	0.24333333333333335
658.4317790413164	0.2683333333333333
658.0190939565284	0.1839999999999903
657.6063901369134	0.19833333333333333
657.1936675811899	0.21166666666666667
656.7809262880805	0.2139999999999903
656.3681662563105	0.1313333333333382
655.9553874846001	0.16766666666667637
655.5425899716812	0.2203333333333285
655.1297737162741	0.14
654.7169387170998	0.14800000000000485
654.3040849728786	0.21366666666666181
653.8912124823422	0.12433333333334304
653.4783212442112	0.17733333333332363
653.0654112572063	0.09833333333333333
652.6524825200479	0.13199999999999515
652.2395350314655	0.17933333333334303
651.8265687901776	0.185
651.4135837949091	0.14733333333332363
651.0005800443785	0.17466666666667152
650.5875575373129	0.12833333333333333
650.1745162724332	0.1239999999999903
649.7614562484596	0.19866666666666183
649.348377464113	0.10366666666666181
648.9352799181206	0.19833333333333333
648.5221636092008	0.18266666666667636
648.1090285360741	0.16233333333332364
647.6958746974614	0.1760000000000097
647.2827020920896	0.06133333333333819
646.8695107186775	0.17466666666667152
646.4563005759431	0.15
646.0430716626075	0.14
645.6298239773976	0.13066666666665697
645.2165575190319	0.24333333333333335
644.8032722862267	0.24833333333333332
644.3899682777028	0.15266666666667636
643.9766454921893	0.25233333333332364
643.5633039283982	0.1363333333333382
643.1499435850546	0.18933333333334304
642.7365644608705	0.18333333333333332
642.3231665545771	0.16166666666666665
641.9097498648889	0.12833333333333333
641.4963143905242	0.21766666666667636
641.0828601302013	0.16333333333333333
640.6693870826476	0.18166666666666667
640.2558952465771	0.2610000000000097
639.8423846207105	0.18166666666666667
639.4288552037599	0.21699999999999514
639.0153069944565	0.23300000000000484
638.6017399915146	0.22300000000000486
638.1881541936483	0.10933333333334304
637.7745495995827	0.21800000000000486
637.3609262080296	0.21933333333334304
636.9472840177161	0.18933333333334304
636.5336230273545	0.10166666666666667
636.119943235665	0.1789999999999903
635.7062446413621	0.1253333333333285
635.2925272431705	0.13333333333333333
634.8787910398067	0.1460000000000097
634.4650360299848	0.08433333333334303
634.0512622124211	0.13933333333334302
633.6374695858384	0.08866666666666181
633.2236581489551	0.13266666666667637
632.8098279004832	0.17166666666666666
632.3959788391412	0.11
631.9821109636476	0.07766666666667636
631.5682242727231	0.16199999999999515
631.1543187650774	0.13766666666667637
630.7403944394289	0.14300000000000485
630.3264512944984	0.14966666666667153
629.9124893289999	0.1789999999999903
629.4985085416498	0.1239999999999903
629.08450893116	0.1789999999999903
628.6704904962556	0.23966666666667152
628.2564532356485	0.14233333333332363
627.8423971480548	0.14966666666667153
627.4283222321847	0.0939999999999903
627.0142284867629	0.17266666666667638
626.6001159105014	0.1860000000000097
626.1859845021144	0.1646666666666715
625.771834260316	0.18733333333332364
625.3576651838268	0.11466666666667152
624.9434772713589	0.13833333333333334
624.5292705216264	0.10366666666666181
624.1150449333433	0.15333333333333332
623.7008005052281	0.16166666666666665
623.2865372359929	0.14300000000000485
622.872255124354	0.22766666666667637
622.457954169021	0.24033333333332849
622.0436343687147	0.17333333333333334
621.629295722145	0.2060000000000097
621.2149382280302	0.1710000000000097
620.8005618850757	0.2336666666666618
620.3861666920067	0.09266666666667636
619.9717526475306	0.3189999999999903
619.5573197503596	0.20966666666667153
619.1428679992077	0.23966666666667152
618.7283973927935	0.24233333333332363
618.3139079298264	0.3466666666666667
617.8993996090189	0.30333333333333334
617.4848724290849	0.2823333333333236
617.0703263887341	0.3389999999999903
616.6557614866873	0.265
616.2411777216521	0.21300000000000485
615.8265750923404	0.27066666666665695
615.411953597462	0.20566666666665698
614.9973132357354	0.22733333333332365
614.5826540058705	0.18933333333334304
614.1679759065792	0.2013333333333382
613.7532789365712	0.2010000000000097
613.3385630945629	0.19933333333334302
612.9238283792641	0.17666666666666667
612.5090747893845	0.1710000000000097
612.0943023236341	0.2060000000000097
611.6795109807312	0.1589999999999903
611.2647007593813	0.1489999999999903
610.8498716582986	0.20333333333333334
610.4350236761907	0.26
610.0201568117717	0.27199999999999513
609.6052710637535	0.3169999999999952
609.1903664308418	0.29266666666667634
608.7754429117483	0.23433333333334302
608.3605005051894	0.23300000000000484
607.9455392098686	0.24266666666667636
607.5305590245018	0.16
607.1155599477905	0.24433333333334303
606.700541978453	0.17566666666665698
606.2855051151969	0.21066666666665695
605.8704493567299	0.07533333333332848
605.4553747017618	0.12833333333333333
605.0402811490067	0.10866666666666182
604.6251686971679	0.17833333333333334
604.2100373449596	0.0410000000000097
603.794887091085	0.22333333333333333
603.3797179342605	0.22566666666665697
602.9645298731892	0.175
602.5493229065834	0.20033333333332848
602.1340970331482	0.2336666666666618
601.7188522515959	0.30966666666667153
601.3035885606339	0.21733333333332364
600.8883059589721	0.2689999999999903
600.4730044453094	0.20333333333333334
600.0576840183686	0.23966666666667152
599.6423446768466	0.2753333333333285
599.2269864194574	0.22833333333333333
598.8116092449044	0.18133333333333818
598.3962131518952	0.29066666666665697
597.9807981391417	0.319333333333343
597.5653642053495	0.17
597.1499113492239	0.16833333333333333
596.7344395694705	0.22766666666667637
596.3189488648012	0.12233333333332364
595.9034392339214	0.21466666666667153
595.4879106755388	0.21933333333334304
595.0723631883525	0.19766666666667637
594.6567967710808	0.17433333333334303
594.2412114224227	0.20433333333334303
593.825607141088	0.13733333333332362
593.4099839257777	0.22566666666665697
592.9943417752039	0.1839999999999903
592.57868068807	0.19800000000000484
592.1630006630813	0.20066666666665697
591.7473016989411	0.2813333333333382
591.3315837943614	0.18933333333334304
590.9158469480456	0.22166666666666668
590.5000911586968	0.20300000000000484
590.0843164250163	0.11033333333332848
589.6685227457202	0.2313333333333382
589.2527101195077	0.2139999999999903
588.8368785450818	0.31166666666666665
588.4210280211462	0.2203333333333285
588.0051585464104	0.23566666666665698
587.5892701195799	0.14199999999999516
587.1733627393536	0.2060000000000097
586.7574364044372	0.1760000000000097
586.341491113538	0.22699999999999515
585.9255268653596	0.18766666666667636
585.5095436586031	0.2260000000000097
585.0935414919694	0.06633333333333818
584.6775203641728	0.09699999999999515
584.26148027391	0.13300000000000486
583.8454212198844	0.165
583.4293432007971	0.115
583.0132462153579	0.2
582.5971302622678	0.17766666666667638
582.1809953402259	0.1386666666666618
581.7648414479354	0.2
581.3486685841062	0.1713333333333382
580.9324767474351	0.12933333333334304
580.5162659366252	0.08266666666667637
580.1000361503757	0.043000000000004854
579.6837873873984	0.042666666666676366
579.267519646388	0.045
578.8512329260478	0.028999999999990297
578.4349272250832	0.08699999999999515
578.0186025421867	0.10300000000000485
577.6022588760703	0.1410000000000097
577.1858962254329	0.21766666666667636
576.7695145889734	0.11466666666667152
576.3531139653909	0.14633333333333817
575.9366943533951	0.1589999999999903
575.5202557516828	0.09666666666666666
575.1037981589529	0.04066666666665696
574.6873215739046	0.0910000000000097
574.2708259952475	0.1239999999999903
573.854311421674	0.10199999999999515
573.4377778518897	0.085
573.0212252845891	0.22133333333333818
572.6046537184778	0.06433333333334304
572.1880631522547	0.09966666666667151
571.7714535846209	0.14733333333332363
571.3548250142687	0.1386666666666618
570.9381774399104	0.09766666666667637
570.5215108602383	0.1489999999999903
570.1048252739535	0.12766666666667636
569.6881206797506	0.17466666666667152
569.2713970763372	0.14033333333332848
568.854654462408	0.14466666666667152
568.4378928366642	0.09800000000000485
568.0211121978002	0.11333333333333333
567.6043125445195	0.1339999999999903
567.187493875521	0.19533333333332847
566.7706561895014	0.06433333333334304
566.3537994851577	0.08
565.9369237611908	0.14966666666667153
565.5200290162996	0.1803333333333285
565.1031152491812	0.13533333333332848
564.6861824585301	0.15366666666666182
564.2692306430516	0.12466666666667152
563.8522598014383	0.15366666666666182
563.4352699323913	0.13033333333332847
563.0182610345986	0.15
562.6012331067724	0.18066666666665696
562.1841861476007	0.14933333333334303
561.7671201557823	0.14166666666666666
561.3500351300121	0.19833333333333333
560.9329310689911	0.20733333333332363
560.515807971416	0.12833333333333333
560.0986658359838	0.1436666666666618
559.6815046613867	0.14966666666667153
559.2643244463217	0.18699999999999514
558.847125189492	0.2853333333333285
558.4299068895878	0.24699999999999514
558.012669545306	0.195
557.5954131553412	0.25233333333332364
557.1781377183946	0.2860000000000097
556.7608432331607	0.2676666666666764
556.343529698332	0.23800000000000485
555.926197112601	0.24033333333332849
555.5088454746709	0.24866666666666182
555.0914747832342	0.21733333333332364
554.6740850369855	0.21199999999999514
554.2566762346152	0.18233333333332363
553.8392483748285	0.2513333333333382
553.4218014563138	0.23300000000000484
553.0043354777655	0.26866666666666184
552.5868504378763	0.09766666666667637
552.1693463353471	0.2363333333333382
551.7518231688704	0.23066666666665697
551.3342809371366	0.1960000000000097
550.91671963884	0.2613333333333382
550.49913927268	0.20766666666667638
550.0815398373467	0.23333333333333334
549.6639213315347	0.2246666666666715
549.2462837539342	0.2646666666666715
548.8286271032442	0.22733333333332365
548.4109513781551	0.26866666666666184
547.9932565773614	0.2646666666666715
547.5755426995535	0.3439999999999903
547.1578097434281	0.29
546.7400577076776	0.3539999999999903
546.3222865909923	0.22766666666667637
545.9044963920649	0.254333333333343
545.4866871095918	0.29766666666667635
545.0688587422615	0.25466666666667154
544.6510112887704	0.33300000000000485
544.2331447478026	0.31033333333332846
543.8152591180612	0.30266666666667635
543.39735439823	0.3836666666666618
542.979430587006	0.3713333333333382
542.5614876830728	0.46699999999999514
542.1435256851336	0.3860000000000097
541.7255445918723	0.39866666666666184
541.3075444019836	0.36199999999999516
540.8895251141511	0.440666666666657
540.471486727076	0.3586666666666618
540.0534292394465	0.4873333333333236
539.6353526499506	0.45199999999999513
539.217256957283	0.5019999999999951
538.7991421601253	0.5260000000000097
538.3810082571806	0.440666666666657
537.962855247133	0.4746666666666715
537.5446831286725	0.5163333333333382
537.1264919004875	0.585
536.7082815612724	0.5539999999999903
536.2900521097155	0.44666666666666666
535.871803544509	0.5519999999999952
535.4535358643325	0.49966666666667153
535.0352490678893	0.6130000000000049
534.6169431538631	0.6319999999999951
534.19861812094	0.580666666666657
533.78027396781	0.594333333333343
533.361910693168	0.6360000000000097
532.9435282956977	0.6596666666666715
532.5251267740915	0.7033333333333334
532.1067061270311	0.6516666666666666
531.6882663532132	0.7869999999999951
531.2698074513237	0.719333333333343
530.8513294200487	0.7519999999999951
530.4328322580762	0.7663333333333382
530.0143159641009	0.8586666666666618
529.5957805368043	0.8610000000000096
529.1772259748768	0.849333333333343
528.7586522770022	0.9480000000000048
528.3400594418729	0.92
527.9214474681769	1.0096666666666716
527.5028163546002	1.0463333333333382
527.0841660998245	1.0866666666666667
526.6654967025466	1.1386666666666618
526.2468081614481	1.1423333333333237
525.8281004752192	1.241999999999995
525.4093736425393	1.3060000000000096
524.9906276621032	1.2773333333333237
524.5718625325945	1.51
524.1530782526993	1.4976666666666765
523.7342748211013	1.5763333333333382
523.3154522364929	1.758000000000005
522.896610497558	1.7589999999999903
522.4777496029803	1.9360000000000097
522.0588695514436	2.006333333333338
521.6399703416404	2.1946666666666714
521.2210519722521	2.2769999999999953
520.8021144419671	2.405666666666657
520.3831577494668	2.7103333333333284
519.9641818934351	2.8733333333333335
519.5451868725623	3.0803333333333285
519.1261726855342	3.40600000000001
518.7071393310304	3.654333333333343
518.2880868077347	3.9560000000000097
517.8690151143393	4.3176666666666765
517.449924249526	4.872333333333324
517.0308142119765	5.3056666666666565
516.6116850003721	5.723000000000005
516.1925366134055	6.525333333333329
515.7733690497562	7.2869999999999955
515.3541823081079	8.22
514.934976387142	9.121999999999995
514.5157512855491	10.239333333333343
514.0965070020062	11.620333333333328
513.6772435352017	12.777666666666676
513.2579608838126	14.291666666666666
512.8386590465294	15.520666666666656
512.4193380220314	17.196666666666665
511.99999780900464	18.236333333333338
511.580638406122	19.060666666666656
511.1612598120781	19.744333333333344
510.7418620255524	20.22600000000001
510.3224450452243	20.109333333333343
509.9030088697755	19.572333333333322
509.48355349789404	18.828333333333333
509.06407892825723	17.556000000000008
508.6445851595488	16.333666666666662
508.22507219044604	15.053000000000004
507.8055400196393	13.643000000000004
507.3859886458058	12.458333333333334
506.96641806762716	11.117333333333324
506.5468282837806	10.009333333333343
506.12721929295435	9.078000000000005
505.7075910938277	8.206333333333339
505.2879436850803	7.448000000000005
504.8682770653892	6.785666666666657
504.4485912334448	6.195
504.02888618792	5.647666666666677
503.6091619274987	5.044333333333343
503.1894184508558	4.77899999999999
502.76965575668174	4.335333333333328
502.3498738436494	3.945666666666657
501.93007271044036	3.6246666666666716
501.51025235573195	3.368666666666662
501.09041277821007	3.2836666666666616
500.67055397655207	3.02
500.25067594943516	2.7716666666666665
499.8307786955409	2.5846666666666716
499.41086221354453	2.525666666666657
498.9909265021319	2.437333333333324
498.5709715599803	2.259333333333343
498.15099738576487	2.043000000000005
497.73100397816495	1.920666666666657
497.31099133586446	1.8919999999999952
496.89095945753843	1.7663333333333382
496.4709083418663	1.6796666666666715
496.050837987521	1.6960000000000097
495.6307483931907	1.5989999999999902
495.21063955754823	1.534333333333343
494.790511479271	1.4489999999999903
494.37036415703403	1.4713333333333383
493.95019758952327	1.3633333333333333
493.53001177541165	1.3573333333333237
493.1098067133765	1.2753333333333285
492.68958240209287	1.2576666666666763
492.26933884024237	1.1646666666666716
491.8490760265023	1.1766666666666667
491.42879395954776	1.1283333333333334
491.0084926380517	1.1066666666666667
490.5881720607	0.9630000000000049
490.1678322261635	0.9266666666666666
489.7474731331217	1.0036666666666618
489.32709478024304	0.9866666666666667
488.9066971662135	0.9416666666666667
488.48628028970614	0.85
488.0658441493982	0.8573333333333236
487.6453887439581	0.8513333333333382
487.224914072072	0.8
486.8044201324106	0.84
486.38390692364896	0.7680000000000049
485.96337444446226	0.770666666666657
485.5428226935299	0.7763333333333382
485.1222516695248	0.7810000000000097
484.7016613711199	0.8846666666666715
484.28105179699037	0.7610000000000097
483.86042294581335	0.8316666666666667
483.43977481626627	0.7683333333333333
483.01910740701766	0.7863333333333382
482.59842071674257	0.710666666666657
482.1777147441205	0.6169999999999951
481.75698948782224	0.6623333333333237
481.33624494652287	0.6493333333333431
480.91548111889534	0.66
480.4946980036104	0.6016666666666667
480.0738955993496	0.5996666666666716
479.65307390478165	0.555666666666657
479.2322329185816	0.609333333333343
478.81137263941804	0.5613333333333382
478.3904930659726	0.4960000000000097
477.9695941969139	0.5713333333333381
477.5486760309148	0.6393333333333431
477.127738566644	0.540666666666657
476.70678180278304	0.590666666666657
476.28580573800053	0.589333333333343
475.86481037096945	0.5503333333333285
475.44379570035835	0.5066666666666667
475.0227617248467	0.5056666666666569
474.6017084431009	0.5060000000000097
474.1806358537961	0.49033333333332846
473.75954395560086	0.5173333333333237
473.3384327471903	0.43666666666666665
472.91730222723737	0.3813333333333382
472.4961523944085	0.43
472.07498324737657	0.3489999999999903
471.6537947848168	0.434333333333343
471.2325870053998	0.30133333333333817
470.81135990779217	0.4260000000000097
470.3901134906646	0.44266666666667637
469.9688477526965	0.5253333333333284
469.54756269254995	0.545666666666657
469.12625830890016	0.5489999999999903
468.7049346004113	0.4930000000000048
468.28359156576283	0.3596666666666715
467.86222920361905	0.4089999999999903
467.4408475126529	0.37666666666666665
467.0194464915286	0.42433333333334305
466.5980261389256	0.4103333333333285
466.176586453506	0.3610000000000097
465.75512743394273	0.38033333333332847
465.3336490789022	0.39666666666666667
464.91215138705746	0.3889999999999903
464.490634357077	0.3260000000000097
464.0690979876294	0.3039999999999903
463.647542277379	0.3353333333333285
463.22596722500305	0.30033333333332846
462.80437282916796	0.31533333333332847
462.3827590885402	0.35
461.96112600178395	0.36766666666667636
461.5394735675766	0.485
461.1178017845845	0.35
460.69611065147194	0.3439999999999903
460.2744001669097	0.375
459.8526703295598	0.2733333333333333
459.4309211380996	0.309333333333343
459.00915259119125	0.30833333333333335
458.58736468750317	0.27433333333334303
458.1655574256997	0.23766666666667638
457.74373080445605	0.20433333333334303
457.321884822432	0.23533333333332848
456.9000194782984	0.22699999999999515
456.47813477071736	0.25733333333332364
456.0562306983639	0.2753333333333285
455.634307259898	0.38
455.2123644539904	0.3616666666666667
454.7904022793011	0.3510000000000097
454.36842073450293	0.2360000000000097
453.9464198182602	0.27699999999999514
453.5243995292416	0.2960000000000097
453.1023598661026	0.3296666666666715
452.6803008275226	0.235
452.2582224121617	0.2836666666666618
451.83612461868404	0.24800000000000486
451.41400744575174	0.24633333333333818
450.9918708920399	0.3596666666666715
450.56971495620627	0.30833333333333335
450.1475396369195	0.22800000000000484
449.72534493283945	0.25666666666666665
449.3031308426391	0.28800000000000486
448.88089736497835	0.28699999999999515
448.4586444985215	0.3439999999999903
448.03637224192846	0.23966666666667152
447.6140805938743	0.34300000000000486
447.19176955301896	0.2519999999999952
446.7694391180224	0.2846666666666715
446.347089287551	0.2966666666666667
445.9247200602713	0.26066666666665694
445.50233143484525	0.29133333333333816
445.079923409935	0.20466666666667152
444.6574959842027	0.325
444.2350491563169	0.195
443.8125829249397	0.22766666666667637
443.390097288731	0.2536666666666618
442.9675922463529	0.309333333333343
442.54506779647625	0.3376666666666764
442.12252393775657	0.3253333333333285
441.69996066885807	0.18666666666666668
441.277377988443	0.12666666666666668
440.85477589517325	0.2853333333333285
440.43215438771324	0.265
440.00951346472505	0.30966666666667153
439.58685312487074	0.32300000000000484
439.16417336680587	0.3596666666666715
438.7414741892034	0.29766666666667635
438.31875559071676	0.3213333333333382
437.8960175700124	0.3413333333333382
437.4732601257437	0.2210000000000097
437.05048325658146	0.22966666666667152
436.62768696118343	0.305
436.2048712382074	0.25266666666667636
435.7820360863154	0.2839999999999903
435.3591815041739	0.28800000000000486
434.9363074904384	0.255
434.51341404377115	0.26666666666666666
434.09050116282765	0.2683333333333333
433.6675688462765	0.2816666666666667
433.24461709277546	0.20966666666667153
432.8216459009802	0.23966666666667152
432.3986552695505	0.2836666666666618
431.9756451971529	0.2786666666666618
431.55261568244293	0.315666666666657
431.12956672408274	0.29199999999999515
430.70649832072354	0.31333333333333335
430.28341047103396	0.2886666666666618
429.8603031736717	0.26066666666665694
429.43717642729246	0.2683333333333333
429.0140302305539	0.42333333333333334
428.5908645821203	0.29066666666665697
428.1676794806494	0.31033333333332846
427.74447492479686	0.4386666666666618
427.3212509132182	0.4216666666666667
426.89800744458205	0.42833333333333334
426.4747445175375	0.38233333333332364
426.05146213074664	0.44766666666667637
425.6281602828629	0.345
425.20483897255264	0.3996666666666715
424.7814981984672	0.34199999999999514
424.3581379592665	0.3660000000000097
423.9347582536018	0.35800000000000487
423.5113590801394	0.36266666666667635
423.0879404375329	0.32
422.66450232444	0.31333333333333335
422.24104473951405	0.315666666666657
421.8175676814172	0.3889999999999903
421.39407114880504	0.36666666666666664
420.97055514033093	0.31233333333332364
420.54701965465495	0.37266666666667636
420.1234646904282	0.28833333333333333
419.6998902463128	0.35433333333334305
419.2762963209644	0.29333333333333333
418.8526829130364	0.4196666666666715
418.4290500211822	0.42133333333333817
418.00539764406386	0.36133333333333817
417.5817257803349	0.2796666666666715
417.15803442864865	0.32699999999999513
416.7343235876586	0.32699999999999513
416.3105932560246	0.2760000000000097
415.8868434324023	0.32166666666666666
415.4630741154451	0.31533333333332847
415.03928530380216	0.34
414.61547699613976	0.3760000000000097
414.1916491911049	0.3276666666666764
413.767801887351	0.37266666666667636
413.34393508353367	0.45366666666666183
412.9200487783128	0.39300000000000485
412.49614297033526	0.3663333333333382
412.0722176582611	0.2703333333333285
411.64827284073493	0.365
411.22430851642116	0.3346666666666715
410.80032468396655	0.37800000000000483
410.376321342029	0.3739999999999903
409.9522984892553	0.3473333333333236
409.5282561243077	0.30766666666667636
409.1041942458351	0.374333333333343
408.6801128524889	0.3789999999999903
408.2560119429202	0.41066666666665697
407.83189151578915	0.43266666666667636
407.40775156974246	0.3860000000000097
406.9835921034358	0.4513333333333382
406.5594131155161	0.2823333333333236
406.1352146046411	0.3263333333333382
405.7109965694642	0.2939999999999903
405.28675900863453	0.335
404.86250192079893	0.2923333333333236
404.43822530461745	0.29199999999999515
404.01392915874123	0.3603333333333285
403.5896134818172	0.29066666666665697
403.1652782724945	0.3510000000000097
402.740923529433	0.38266666666667637
402.31654925127964	0.3926666666666764
401.8921554366857	0.3769999999999952
401.4677420843024	0.39233333333332365
401.0433091927745	0.4439999999999903
400.61885676076406	0.36766666666667636
400.1943847869137	0.34800000000000486
399.7698932698746	0.3503333333333285
399.345382208296	0.2916666666666667
398.9208516008334	0.3996666666666715
398.4963014461336	0.35766666666667635
398.0717317428458	0.23166666666666666
397.647142489617	0.2813333333333382
397.2225336851048	0.32366666666666183
396.797905327954	0.35633333333333816
396.3732574168138	0.37
395.9485899503309	0.38333333333333336
395.52390292716103	0.3889999999999903
395.0991963459511	0.34566666666665696
394.6744702053458	0.3896666666666715
394.2497245039943	0.3769999999999952
393.8249592405521	0.30966666666667153
393.40017441366183	0.34199999999999514
392.9753700219747	0.305
392.5505460641355	0.22699999999999515
392.1257025387955	0.2936666666666618
391.70083944460373	0.24933333333334304
391.2759567802049	0.2786666666666618
390.8510545442461	0.2896666666666715
390.42613273537836	0.33800000000000485
390.00119135225094	0.40933333333334304
389.57623039350636	0.36699999999999516
389.1512498577893	0.2810000000000097
388.72624974375765	0.3353333333333285
388.3012300500495	0.2689999999999903
387.8761907753162	0.24233333333332363
387.45113191820036	0.2560000000000097
387.0260534773531	0.385
386.60095545141934	0.3113333333333382
386.1758378390437	0.35066666666665697
385.7507006388731	0.4223333333333236
385.3255438495567	0.3523333333333236
384.90036746973703	0.3736666666666618
384.47517149806316	0.30833333333333335
384.0499559331755	0.26600000000000973
383.6247207737275	0.34433333333334304
383.1994660183596	0.4116666666666667
382.77419166571866	0.4166666666666667
382.3488977144451	0.37266666666667636
381.92358416319234	0.2560000000000097
381.498251010603	0.430666666666657
381.0728982553196	0.33733333333332366
380.6475258959869	0.3360000000000097
380.2221339312475	0.3586666666666618
379.7967223597549	0.3403333333333285
379.37129118014496	0.3476666666666764
378.94584039106695	0.29
378.5203699911569	0.389333333333343
378.09487997907036	0.42633333333333817
377.6693703534434	0.40199999999999514
377.243841112923	0.36333333333333334
376.8182922561495	0.42533333333332846
376.3927237817721	0.4033333333333333
375.96713568843103	0.32733333333332365
375.541527974769	0.3383333333333333
375.11590063942424	0.4110000000000097
374.6902536810523	0.3876666666666764
374.2645870982871	0.35633333333333816
373.8389008897734	0.29300000000000487
373.41319505415163	0.36133333333333817
372.9874695900686	0.3739999999999903
372.561724496167	0.41266666666667634
372.1359597710851	0.35633333333333816
371.7101754134632	0.3310000000000097
371.2843714219504	0.3516666666666667
370.8585477951872	0.259333333333343
370.43270453181174	0.38300000000000484
370.00684163046236	0.33366666666666184
369.5809590897924	0.28633333333333816
369.1550569084336	0.43333333333333335
368.7291350850329	0.395
368.30319361822427	0.305
367.87723250665454	0.39800000000000485
367.4512517489663	0.435
367.0252513437956	0.2773333333333236
366.5992312897829	0.38266666666667637
366.17319158557297	0.35133333333333816
365.747132229804	0.37466666666667153
365.32105322111636	0.42433333333334305
364.8949545581462	0.455
364.46883623954045	0.41699999999999515
364.0426982639373	0.29433333333334305
363.616540629975	0.33366666666666184
363.19036333628964	0.32366666666666183
362.7641663815303	0.2866666666666667
362.3379497643287	0.4160000000000097
361.9117134833253	0.3486666666666618
361.4854575371626	0.43966666666667154
361.05918192447024	0.47766666666667634
360.6328866439016	0.3839999999999903
360.20657169408406	0.420666666666657
359.7802370736624	0.39699999999999513
359.3538827812684	0.4610000000000097
358.92750881554895	0.4716666666666667
358.5011151751379	0.37800000000000483
358.07470185867567	0.5013333333333382
357.6482688647919	0.44
357.22181619213774	0.3710000000000097
356.7953438393429	0.4239999999999903
356.3688518050455	0.415
355.94234008788163	0.4
355.51580868649387	0.34933333333334304
355.0892575995162	0.3189999999999903
354.662686825589	0.439333333333343
354.2360963633396	0.499333333333343
353.8094862114171	0.39933333333334303
353.3828563684533	0.34300000000000486
352.95620683308425	0.38266666666667637
352.5295376039439	0.41433333333334305
352.1028486796747	0.3946666666666715
351.67614005890846	0.435
351.24941174028345	0.415
350.8226637224314	0.4589999999999903
350.395896003997	0.4239999999999903
349.9691085836077	0.48300000000000487
349.5423014599039	0.4103333333333285
349.11547463151516	0.4533333333333333
348.6886280970863	0.45566666666665695
348.26176185524673	0.4066666666666667
347.8348759046305	0.41133333333333816
347.40797024387143	0.4310000000000097
346.9810448716122	0.3436666666666618
346.55409978648225	0.4560000000000097
346.12713498711554	0.3333333333333333
345.70015047214383	0.3436666666666618
345.2731462402119	0.4789999999999903
344.8461222899449	0.4583333333333333
344.41907861998106	0.40066666666665696
343.9920152289479	0.3383333333333333
343.56493211548786	0.5106666666666569
343.1378292782306	0.47
342.71070671581214	0.475
342.2835644268599	0.46433333333334303
341.85640241001437	0.5683333333333334
341.42922066390713	0.5489999999999903
341.0020191871679	0.5010000000000097
340.5747979784326	0.47633333333333816
340.14755703633097	0.4610000000000097
339.7202963595011	0.4896666666666715
339.2930159465705	0.5013333333333382
338.86571579617737	0.4913333333333382
338.4383959069447	0.5039999999999903
338.0110562775131	0.41933333333334305
337.5836969065141	0.5243333333333431
337.15631779257734	0.520666666666657
336.72891893433024	0.5586666666666619
336.30150033041315	0.5519999999999952
335.8740619794536	0.505
335.44660388008316	0.5710000000000097
335.01912603093155	0.5613333333333382
334.59162843063257	0.44166666666666665
334.164111077818	0.5146666666666715
333.7365739711174	0.435666666666657
333.3090171091582	0.43766666666667636
332.88144049057644	0.4246666666666715
332.4538441140017	0.44966666666667154
332.02622797806356	0.5310000000000097
331.59859208138937	0.529333333333343
331.1709364226152	0.47833333333333333
330.7432610003664	0.48699999999999516
330.31556581327675	0.5276666666666764
329.8878508599694	0.4553333333333285
329.46011613908246	0.47
329.0323616492413	0.5026666666666764
328.6045873890776	0.5326666666666764
328.1767933572123	0.4886666666666618
327.7489795522879	0.5210000000000097
327.32114597292536	0.4753333333333285
326.89329261775424	0.48266666666667635
326.4654194853997	0.4746666666666715
326.0375265745001	0.39166666666666666
325.60961388367843	0.5573333333333236
325.1816814115642	0.4726666666666764
324.75372915678065	0.4646666666666715
324.3257571179637	0.45733333333332366
323.8977652937386	0.5360000000000097
323.46975368273064	0.4816666666666667
323.0417222835672	0.47300000000000486
322.61367109488435	0.4596666666666715
322.18560011530076	0.49766666666667636
321.75750934344825	0.4726666666666764
321.32939877795206	0.48199999999999515
320.9012684174352	0.4560000000000097
320.47311826053584	0.605
320.0449483058729	0.5610000000000097
319.6167585520736	0.565666666666657
319.18854899776323	0.5586666666666619
318.76031964157573	0.5669999999999952
318.332070482132	0.6036666666666618
317.9038015180594	0.5810000000000097
317.4755127479788	0.5980000000000049
317.04720417052425	0.57
316.6188757843208	0.6383333333333333
316.1905275879894	0.6639999999999903
315.76215958015536	0.6230000000000049
315.3337717594525	0.6060000000000098
314.9053641244995	0.6096666666666715
314.4769366739217	0.6
314.0484894063444	0.6333333333333333
313.6200223203948	0.6030000000000049
313.19153541469825	0.5136666666666618
312.7630286878778	0.580666666666657
312.3345021385521	0.5696666666666715
311.9059557653574	0.555666666666657
311.4773895669123	0.48833333333333334
311.04880354184195	0.5319999999999951
310.6201976887631	0.5180000000000049
310.1915720063139	0.595666666666657
309.76292649310653	0.7580000000000049
309.33426114777274	0.6760000000000097
308.90557596892484	0.645666666666657
308.4768709551988	0.7753333333333284
308.04814610521345	0.7426666666666764
307.61940141759175	0.6603333333333284
307.1906368909525	0.7169999999999952
306.76185252392514	0.745
306.3330483151308	0.6716666666666666
305.9042242631923	0.7716666666666666
305.4753803667263	0.7780000000000048
305.0465166243624	0.7326666666666763
304.61763303472367	0.7386666666666618
304.1887295964288	0.805666666666657
303.7598063080965	0.7936666666666619
303.3308631683563	0.7669999999999951
302.90190017582705	0.8196666666666715
302.4729173291296	0.8646666666666715
302.04391462688477	0.7313333333333382
301.61489206771347	0.7586666666666618
301.18584965024104	0.755
300.7567873730861	0.8419999999999952
300.3277052348696	0.8726666666666764
299.89860323421027	0.8113333333333382
299.4694813697333	0.8836666666666618
299.04033964005737	0.794333333333343
298.6111780438057	0.8803333333333285
298.18199657959036	0.8823333333333236
297.752795246041	0.8963333333333382
297.3235740417741	0.8796666666666715
296.8943329654107	0.9726666666666763
296.46507201556506	0.9153333333333284
296.0357911908646	0.9273333333333237
295.6064904899281	1.0376666666666763
295.17716991137206	0.974333333333343
294.7478294538131	0.9446666666666715
294.3184691158764	0.9633333333333334
293.8890888961806	0.8706666666666569
293.4596887933425	0.9036666666666618
293.03026880597844	0.8960000000000097
292.6008289327138	0.8813333333333382
292.1713691721628	0.935666666666657
291.7418895229465	0.9080000000000048
291.312389983677	0.8969999999999951
290.8828705529796	0.8260000000000097
290.4533312294709	0.7439999999999903
290.02377201176955	0.8310000000000097
289.59419289848563	0.780666666666657
289.1645938882465	0.8180000000000048
288.7349749796687	0.8813333333333382
288.3053361713668	0.8686666666666618
287.8756774619528	0.8126666666666764
287.44599885005636	0.7693333333333431
287.0163003342854	0.7310000000000098
286.5865819132608	0.6973333333333236
286.1568435855947	0.66
285.7270853499102	0.595666666666657
285.2973072048218	0.5969999999999952
284.8675091489438	0.6426666666666764
284.4376911808905	0.5589999999999903
284.00785329928516	0.654333333333343
283.577995502742	0.6676666666666764
283.14811778987115	0.665666666666657
282.7182201592914	0.6256666666666569
282.28830260962343	0.7433333333333333
281.85836513947754	0.7356666666666569
281.42840774747015	0.709333333333343
280.9984304322157	0.7010000000000097
280.5684331923285	0.6669999999999952
280.13841602642736	0.6969999999999952
279.70837893312665	0.6736666666666619
279.2783219110408	0.6663333333333382
278.84824495877757	0.5889999999999903
278.41814807496235	0.6726666666666764
277.98803125820507	0.6513333333333382
277.557894507118	0.6186666666666618
277.12773782031337	0.6389999999999904
276.6975611964142	0.5966666666666667
276.26736463402625	0.5646666666666715
275.8371481317683	0.645
275.4069116882459	0.6013333333333382
274.97665530208224	0.5910000000000097
274.54637897188735	0.550666666666657
274.11608269627345	0.5813333333333381
273.68576647384845	0.6436666666666618
273.2554303032375	0.5430000000000048
272.82507418304425	0.5653333333333285
272.39469811188513	0.6423333333333237
271.9643020883682	0.6153333333333285
271.533886111112	0.5213333333333382
271.10345017872675	0.5396666666666715
270.67299428982454	0.5539999999999903
270.2425184430133	0.4696666666666715
269.8120226369118	0.3963333333333382
269.38150687013	0.4026666666666764
268.9509711412781	0.33699999999999514
268.52041544896383	0.3996666666666715
268.08983979180596	0.3636666666666618
267.65924416841244	0.4103333333333285
267.2286285773954	0.4096666666666715
266.7979930173607	0.31800000000000483
266.36733748692905	0.24166666666666667
265.9366619847041	0.3503333333333285
265.50596650929805	0.3113333333333382
265.07525105931876	0.27233333333332366
264.64451563338287	0.32800000000000484
264.21376023009816	0.2833333333333333
263.78298484807476	0.21166666666666667
263.3521894859162	0.2676666666666764
262.9213741422434	0.19233333333332364
262.4905388156598	0.15800000000000486
262.0596835047756	0.2086666666666618
261.62880820819856	0.24633333333333818
261.1979129245432	0.24
260.7669976524172	0.10933333333334304
260.3360623904265	0.18433333333334304
259.90510713718317	0.09800000000000485
259.47413189128866	0.08066666666665696
259.04313665136385	0.08933333333334303
258.6121214160123	-0.00800000000000485
258.1810861838397	0.0560000000000097
257.75003095345176	0.06966666666667151
257.31895572346724	0.06766666666667637
256.8878604924875	0.034666666666671515
256.45674525912045	0.03966666666667152
256.0256100219717	-0.005333333333328483
255.59445477965582	-0.01
255.1632795307762	0.03800000000000485
254.73208427393865	0.08933333333334303
254.300869007751	0.13199999999999515
253.8696337308255	0.003666666666661816
253.4383784417657	0.051333333333338185
253.0071031391773	0.01699999999999515
252.57580782166383	0.027666666666676366
252.1444924878419	-0.05566666666665696
251.71315713631068	-0.005666666666656966
251.28180176568023	0.028333333333333332
250.85042637454976	0.021333333333338183
250.41903096153368	0.02800000000000485
249.9876155252377	0.017333333333323632
249.55618006426315	-0.016333333333338185
249.12472457721364	0.006333333333338184
248.69324906270137	0.07066666666665697
248.26175351933205	0.028999999999990297
247.83023794570707	-0.0660000000000097
247.3987023404278	0.006666666666666667
246.96714670210864	0.08566666666665697
246.53557102935096	0.05733333333332363
246.10397532076047	0.024666666666671517
245.67235957493423	-0.014666666666671517
245.24072379048877	0.018333333333333333
244.8090679660212	-0.015
244.37739210013714	0.001333333333338184
243.94569619143803	-0.009666666666671517
243.51398023853605	-0.003999999999990299
243.0822442400283	0.0310000000000097
242.65048819452264	0.005666666666656966
242.2187121006139	0.05433333333334303
241.78691595691873	0.09699999999999515
241.35509976203193	0.0360000000000097
240.9232635145614	0.060333333333328486
240.49140721310636	0.05566666666665696
240.059530856266	-0.051000000000009704
239.62763444265474	-0.03699999999999515
239.1957179708696	0.0789999999999903
238.76378143951197	0.08733333333332363
238.33182484718105	0.11300000000000485
237.89984819248693	0.010666666666656966
237.46785147403094	0.08300000000000485
237.03583469041013	0.04666666666666667
236.6037978402259	0.009333333333343035
236.1717409220883	0.03699999999999515
235.7396639345922	0.034333333333343034
235.30756687634332	0.050333333333328484
234.87544974593433	0.01199999999999515
234.44331254197968	-0.03166666666666667
234.01115526307206	0.05966666666667152
233.57897790781496	0.018666666666661814
233.1467804748055	0.021666666666666667
232.7145629626515	0.06833333333333333
232.28232536995006	-0.009333333333343035
231.8500676953025	0.043666666666661816
231.41778993730375	0.08766666666667637
230.98549209456385	0.03833333333333333
230.55317416567763	0.042666666666676366
230.12083614924651	-0.0006666666666569654
229.68847804386536	0.024333333333343036
229.2560998481399	-0.019333333333343035
228.82370156066932	-0.024666666666671517
228.39128318005285	0.043666666666661816
227.95884470488318	-0.021333333333338183
227.5263861337704	-0.12800000000000486
227.09390746530931	-0.03699999999999515
226.66140869809703	-0.050666666666656965
226.22888983073057	-0.11566666666665697
225.79635086181347	-0.03166666666666667
225.36379178994494	-0.07533333333332848
224.93121261371985	-0.01699999999999515
224.4986133317331	-0.05199999999999515
224.06599394259257	-0.0689999999999903
223.63335444489314	-0.04066666666665696
223.20069483722963	0.0030000000000048508
222.76801511819698	0.0339999999999903
222.33531528640088	0.0989999999999903
221.9025953404362	0.02199999999999515
221.4698552788978	-0.03233333333332363
221.0370951003849	0.005
220.6043148034924	0.023333333333333334
220.17151438682168	0.03733333333332363
219.73869384896756	-0.013000000000004851
219.30585318852715	-0.008666666666661816
218.87299240409308	0.04133333333333818
218.440111494269	-0.005333333333328483
218.0072104576475	-0.0539999999999903
217.5742892928257	-0.06866666666666181
217.1413479983941	-0.0639999999999903
216.70838657295846	0.02699999999999515
216.27540501510927	0.03133333333333818
215.8424033234436	0.003666666666661816
215.40938149655196	0.00800000000000485
214.97633953303793	-0.05
214.5432774314942	-0.0410000000000097
214.11019519051567	-0.13266666666667637
213.67709280869065	-0.0489999999999903
213.24397028462707	-0.023333333333333334
212.8108276169111	0.03233333333332363
212.37766480413984	0.011333333333338184
211.9444818449016	0.012666666666676369
211.51127873780212	0.14333333333333334
211.0780554814319	0.12066666666665697
210.64481207438155	0.1736666666666618
210.21154851524156	0.06233333333332363
209.77826480261763	0.058333333333333334
209.34496093509603	0.0016666666666666668
208.91163691127156	-0.018666666666661814
208.47829272973476	0.07133333333333819
208.0449283890849	0.025333333333328482
207.6115438879125	-0.055
207.17813922481238	-0.011000000000009702
206.74471439836861	0.04199999999999515
206.31126940718693	0.043333333333333335
205.87780424985567	0.10333333333333333
