768.7678709118609	0.105
768.3601795435875	0.11166666666666666
767.9524697795084	0.08699999999999515
767.5447416183789	0.14066666666665698
767.1369950589522	0.145
766.7292300999793	0.07966666666667152
766.321446740222	0.17533333333332848
765.9136449784291	0.14433333333334303
765.5058248133583	0.2586666666666618
765.0979862437583	0.23266666666667637
764.6901292683908	0.14699999999999516
764.2822538860049	0.10133333333333819
763.8743600953579	0.14166666666666666
763.4664478951966	0.1436666666666618
763.0585172842827	0.1646666666666715
762.6505682613673	0.25466666666667154
762.2426008252036	0.2153333333333285
761.8346149745404	0.14233333333332363
761.4266107081372	0.1896666666666715
761.0185880247452	0.07166666666666667
760.6105469231176	0.08966666666667152
760.202487402003	-0.010333333333328483
759.7944094601592	0.020666666666656966
759.3863130963391	0.028666666666661816
758.9781983092939	0.13300000000000486
758.5700650977723	0.1363333333333382
758.1619134605319	0.065
757.7537433963257	0.012333333333323633
757.3455549039006	-0.03266666666667637
756.9373479820074	0.13966666666667152
756.529122629406	0.09233333333332364
756.1208788448427	0.11566666666665697
755.7126166270709	0.0539999999999903
755.3043359748374	0.12733333333332364
754.8960368869017	0.07233333333332363
754.4877193620104	0.11633333333333819
754.0793833989146	0.19266666666667637
753.671028996363	0.16833333333333333
753.2626561531134	0.15300000000000485
752.8542648679122	0.08766666666667637
752.4458551395104	0.1663333333333382
752.0374269666613	0.125
751.6289803481072	0.05366666666666182
751.2205152826077	-0.006999999999995149
750.8120317689096	0.07466666666667152
750.4035298057637	0.04733333333332363
749.9950093919146	0.13
749.586470526122	0.09233333333332364
749.1779132071304	0.1739999999999903
748.7693374336906	0.12866666666666182
748.3607432045474	0.15199999999999514
747.9521305184559	0.12300000000000486
747.5434993741673	0.2310000000000097
747.134849770426	0.08366666666666181
746.7261817059784	0.13966666666667152
746.3174951795825	0.15266666666667636
745.9087901899825	0.08733333333332363
745.500066735925	0.075
745.091324816159	0.03166666666666667
744.6825644294398	0.13833333333333334
744.2737855745097	0.0989999999999903
743.8649882501174	0.11733333333332363
743.4561724550099	0.10633333333333818
743.0473381879422	0.1910000000000097
742.6384854476568	0.13300000000000486
742.2296142329003	0.17633333333333817
741.8207245424215	0.12033333333332848
741.4118163749715	0.1546666666666715
741.002889729297	0.2010000000000097
740.5939446041443	0.14300000000000485
740.1849809982541	0.1736666666666618
739.7759989103856	0.14566666666665695
739.3669983392814	0.0989999999999903
738.957979283686	0.09833333333333333
738.5489417423437	0.1963333333333382
738.13988571401	0.09433333333334304
737.730811197425	0.22800000000000484
737.3217181913398	0.11333333333333333
736.9126066944921	0.11800000000000485
736.5034767056397	0.17800000000000485
736.0943282235205	0.10966666666667152
735.6851612468854	0.0639999999999903
735.2759757744748	0.19033333333332847
734.8667718050416	0.1589999999999903
734.4575493373283	0.17766666666667638
734.0483083700792	0.08366666666666181
733.6390489020412	0.030666666666656964
733.2297709319565	0.16
732.8204744585761	0.10833333333333334
732.4111594806445	0.09266666666667636
732.0018259969019	0.08300000000000485
731.5924740060949	0.05366666666666182
731.1831035069702	0.06133333333333819
730.7737144982744	0.10333333333333333
730.3643069787478	0.029666666666671518
729.9548809471348	0.10433333333334303
729.5454364021842	0.18933333333334304
729.1359733426384	0.13566666666665697
728.7264917672396	0.07233333333332363
728.3169916747303	0.06533333333332848
727.9074730638592	0.06066666666665697
727.4979359333709	0.10566666666665697
727.0883802820032	0.034666666666671515
726.6788061085008	0.0539999999999903
726.2692134116146	0.10733333333332364
725.8596021900805	0.025666666666656967
725.449972442645	0.14
725.0403241680441	0.07666666666666666
724.630657365033	0.09133333333333818
724.2209720323476	0.05733333333332363
723.8112681687303	0.03666666666666667
723.4015457729232	0.1386666666666618
722.9918048436731	-0.04233333333332363
722.5820453797202	0.065
722.1722673798067	0.04733333333332363
721.7624708426707	0.006333333333338184
721.3526557670632	0.05266666666667637
720.94282215172	0.04733333333332363
720.5329699953855	0.07699999999999516
720.1230992967957	0.02699999999999515
719.7132100547013	0.03233333333332363
719.3033022678385	0.09033333333332848
718.8933759349494	0.003999999999990299
718.4834310547741	0.044333333333343036
718.0734676260573	0.1260000000000097
717.6634856475368	0.06433333333334304
717.2534851179572	0.02733333333332363
716.8434660360522	0.06566666666665696
716.4334284005727	0.10033333333332849
716.0233722102523	0.15566666666665696
715.6132974638334	0.12233333333332364
715.2032041600562	0.12300000000000486
714.7930922976565	0.1
714.3829618753853	0.1660000000000097
713.9728128919741	0.1436666666666618
713.562645346165	0.07066666666665697
713.1524592366941	0.1539999999999903
712.7422545623102	0.07933333333334304
712.3320313217469	0.051000000000009704
711.9217895137442	0.10133333333333819
711.5115291370382	0.07033333333332849
711.1012501903754	0.0560000000000097
710.6909526724916	0.04766666666667637
710.2806365821249	0.06833333333333333
709.870301918011	0.1410000000000097
709.4599486788967	0.17
709.0495768635155	0.1789999999999903
708.6391864706077	0.056666666666666664
708.228777498909	0.10133333333333819
707.8183499471618	0.08233333333332363
707.4079038141018	0.055
706.9974390984672	0.13233333333332364
706.5869557989937	0.09
706.1764539144258	0.09433333333334304
705.7659334434971	0.058999999999990296
705.3553943849456	0.1410000000000097
704.9448367375052	0.07933333333334304
704.5342604999221	0.03233333333332363
704.123665670926	0.16699999999999515
703.7130522492591	0.09033333333332848
703.3024202336507	0.1589999999999903
702.8917696228474	0.14199999999999516
702.4811004155808	0.10333333333333333
702.0704126105888	0.07566666666665696
701.6597062066053	0.024333333333343036
701.2489812023722	0.02033333333332848
700.8382375966235	0.014333333333343034
700.4274753880926	0.05800000000000485
700.0166945755177	0.1389999999999903
699.6058951576366	0.06
699.1950771331854	0.04800000000000485
698.7842405008996	0.043333333333333335
698.3733852595066	0.05699999999999515
697.962511407755	0.04
697.5516189443744	0.0989999999999903
697.1407078681002	0.08366666666666181
696.7297781776643	0.09033333333332848
696.3188298718089	0.1360000000000097
695.9078629492653	0.13199999999999515
695.4968774087696	0.10666666666666667
695.0858732490532	0.1896666666666715
694.6748504688518	0.03699999999999515
694.2638090669034	0.08866666666666181
693.8527490419395	0.06433333333334304
693.4416703926984	0.10866666666666182
693.0305731179045	0.0960000000000097
692.6194572163027	0.09066666666665696
692.2083226866246	0.14533333333332848
691.7971695276012	0.0889999999999903
691.3859977379644	0.12466666666667152
690.9748073164542	0.1510000000000097
690.563598261802	0.10366666666666181
690.1523705727373	0.18233333333332363
689.7411242479958	0.15199999999999514
689.3298592863133	0.13933333333334302
688.9185756864193	0.16766666666667637
688.5072734470516	0.155
688.095952566933	0.2110000000000097
687.6846130448081	0.12800000000000486
687.273254879404	0.18433333333334304
686.8618780694522	0.06733333333332363
686.4504826136841	0.06966666666667151
686.0390685108379	0.12433333333334304
685.6276357596405	0.20933333333334303
685.216184358828	0.10233333333332363
684.804714307125	0.25666666666666665
684.3932256032718	0.15233333333332363
683.981718245998	0.12666666666666668
683.5701922340304	0.21300000000000485
683.1586475661029	0.20266666666667638
682.747084240951	0.08433333333334303
682.3355022573022	0.06199999999999515
681.9239016138878	0.08333333333333333
681.5122823094371	0.09666666666666666
681.100644342686	0.06966666666667151
680.6889877123616	0.1313333333333382
680.2773124171954	0.1689999999999903
679.8656184559145	0.16033333333332847
679.4539058272569	0.07800000000000486
679.0421745299477	0.17766666666667638
678.6304245627183	0.12166666666666667
678.2186559242936	0.17966666666667153
677.8068686134138	0.12666666666666668
677.395062628804	0.15066666666665696
676.9832379691933	0.1413333333333382
676.5713946333069	0.16800000000000484
676.1595326198826	0.1910000000000097
675.7476519276477	0.2246666666666715
675.3357525553292	0.16933333333334302
674.9238345016566	0.22433333333334304
674.5118977653547	0.1989999999999903
674.0999423451638	0.06833333333333333
673.6879682398022	0.2
673.2759754480059	0.24466666666667153
672.8639639684933	0.0889999999999903
672.4519338000044	0.1946666666666715
672.0398849412645	0.10133333333333819
671.6278173909984	0.10866666666666182
671.2157311479332	0.1713333333333382
670.8036262108026	0.12933333333334304
670.3915025783316	0.1313333333333382
669.9793602492473	0.19966666666667152
669.5671992222748	0.31766666666667637
669.1550194961476	0.18733333333332364
668.7428210695929	0.26166666666666666
668.3306039413335	0.13733333333332362
667.9183681100944	0.13166666666666665
667.5061135746137	0.14300000000000485
667.0938403336097	0.2603333333333285
666.6815483858096	0.25233333333332364
666.2692377299405	0.18166666666666667
665.856908364734	0.21233333333332363
665.4445602889106	0.15733333333332364
665.0321935011997	0.15366666666666182
664.6198080003242	0.03300000000000485
664.2074037850176	0.13233333333332364
663.7949808539984	0.09833333333333333
663.3825392059981	0.15199999999999514
662.9700788397353	0.12366666666666182
662.5575997539434	0.14800000000000485
662.1451019473432	0.2
661.732585418664	0.2289999999999903
661.3200501666242	0.2339999999999903
660.9074961899598	0.14833333333333334
660.494923487387	0.12566666666665696
660.0823320576351	0.1189999999999903
659.6697218994246	0.21766666666667636
659.2570930114873	0.2010000000000097
658.8444453925414	0.1896666666666715
658.4317790413164	0.1786666666666618
658.0190939565284	0.09833333333333333
657.6063901369134	0.1596666666666715
657.1936675811899	0.16966666666667152
656.7809262880805	0.1910000000000097
656.3681662563105	0.10800000000000486
655.9553874846001	0.12233333333332364
655.5425899716812	0.22199999999999515
655.1297737162741	0.1646666666666715
654.7169387170998	0.19300000000000486
654.3040849728786	0.17333333333333334
653.8912124823422	0.15633333333333818
653.4783212442112	0.2789999999999903
653.0654112572063	0.22233333333332364
652.6524825200479	0.19966666666667152
652.2395350314655	0.16866666666666183
651.8265687901776	0.19533333333332847
651.4135837949091	0.18766666666667636
651.0005800443785	0.20633333333333817
650.5875575373129	0.1639999999999903
650.1745162724332	0.16666666666666666
649.7614562484596	0.1510000000000097
649.348377464113	0.18300000000000485
648.9352799181206	0.17199999999999516
648.5221636092008	0.14466666666667152
648.1090285360741	0.18266666666667636
647.6958746974614	0.19333333333333333
647.2827020920896	0.19
646.8695107186775	0.18433333333334304
646.4563005759431	0.2619999999999951
646.0430716626075	0.2
645.6298239773976	0.215
645.2165575190319	0.20066666666665697
644.8032722862267	0.2746666666666715
644.3899682777028	0.15166666666666667
643.9766454921893	0.18800000000000486
643.5633039283982	0.17966666666667153
643.1499435850546	0.24866666666666182
642.7365644608705	0.2386666666666618
642.3231665545771	0.245
641.9097498648889	0.24233333333332363
641.4963143905242	0.10133333333333819
641.0828601302013	0.20233333333332362
640.6693870826476	0.1410000000000097
640.2558952465771	0.21800000000000486
639.8423846207105	0.21633333333333818
639.4288552037599	0.2196666666666715
639.0153069944565	0.23666666666666666
638.6017399915146	0.18699999999999514
638.1881541936483	0.2
637.7745495995827	0.15199999999999514
637.3609262080296	0.16833333333333333
636.9472840177161	0.22066666666665696
636.5336230273545	0.23466666666667152
636.119943235665	0.07033333333332849
635.7062446413621	0.1960000000000097
635.2925272431705	0.13333333333333333
634.8787910398067	0.23233333333332362
634.4650360299848	0.23066666666665697
634.0512622124211	0.19133333333333818
633.6374695858384	0.22300000000000486
633.2236581489551	0.18566666666665696
632.8098279004832	0.19933333333334302
632.3959788391412	0.16333333333333333
631.9821109636476	0.13699999999999515
631.5682242727231	0.11300000000000485
631.1543187650774	0.11033333333332848
630.7403944394289	0.17566666666665698
630.3264512944984	0.06766666666667637
629.9124893289999	0.08933333333334303
629.4985085416498	0.06
629.08450893116	0.165
628.6704904962556	0.13233333333332364
628.2564532356485	0.11666666666666667
627.8423971480548	0.1486666666666618
627.4283222321847	0.225
627.0142284867629	0.17833333333333334
626.6001159105014	0.2873333333333236
626.1859845021144	0.21266666666667636
625.771834260316	0.18633333333333818
625.3576651838268	0.21266666666667636
624.9434772713589	0.14666666666666667
624.5292705216264	0.16333333333333333
624.1150449333433	0.2410000000000097
623.7008005052281	0.15600000000000971
623.2865372359929	0.22133333333333818
622.872255124354	0.17033333333332848
622.457954169021	0.07633333333333818
622.0436343687147	0.20266666666667638
621.629295722145	0.17066666666665697
621.2149382280302	0.26233333333332365
620.8005618850757	0.2563333333333382
620.3861666920067	0.2563333333333382
619.9717526475306	0.21266666666667636
619.5573197503596	0.23533333333332848
619.1428679992077	0.20833333333333334
618.7283973927935	0.24766666666667636
618.3139079298264	0.324333333333343
617.8993996090189	0.2813333333333382
617.4848724290849	0.1710000000000097
617.0703263887341	0.17666666666666667
616.6557614866873	0.215
616.2411777216521	0.19266666666667637
615.8265750923404	0.25166666666666665
615.411953597462	0.20633333333333817
614.9973132357354	0.2496666666666715
614.5826540058705	0.3030000000000049
614.1679759065792	0.3416666666666667
613.7532789365712	0.18466666666667153
613.3385630945629	0.35699999999999515
612.9238283792641	0.2683333333333333
612.5090747893845	0.305
612.0943023236341	0.32166666666666666
611.6795109807312	0.19233333333332364
611.2647007593813	0.16
610.8498716582986	0.21566666666665696
610.4350236761907	0.17733333333332363
610.0201568117717	0.1839999999999903
609.6052710637535	0.1853333333333285
609.1903664308418	0.23266666666667637
608.7754429117483	0.245
608.3605005051894	0.13066666666665697
607.9455392098686	0.1989999999999903
607.5305590245018	0.21666666666666667
607.1155599477905	0.22266666666667637
606.700541978453	0.2746666666666715
606.2855051151969	0.175
605.8704493567299	0.18233333333332363
605.4553747017618	0.18766666666667636
605.0402811490067	0.19733333333332362
604.6251686971679	0.09433333333334304
604.2100373449596	0.2010000000000097
603.794887091085	0.1896666666666715
603.3797179342605	0.18433333333334304
602.9645298731892	0.12933333333334304
602.5493229065834	0.12933333333334304
602.1340970331482	0.15266666666667636
601.7188522515959	0.16533333333332847
601.3035885606339	0.13666666666666666
600.8883059589721	0.14233333333332363
600.4730044453094	0.1689999999999903
600.0576840183686	0.13466666666667151
599.6423446768466	0.16300000000000486
599.2269864194574	0.17733333333332363
598.8116092449044	0.24566666666665696
598.3962131518952	0.06199999999999515
597.9807981391417	0.1963333333333382
597.5653642053495	0.21066666666665695
597.1499113492239	0.06433333333334304
596.7344395694705	0.16366666666666183
596.3189488648012	0.11766666666667637
595.9034392339214	0.19033333333332847
595.4879106755388	0.1546666666666715
595.0723631883525	0.10533333333332848
594.6567967710808	0.14699999999999516
594.2412114224227	0.13
593.825607141088	0.10533333333332848
593.4099839257777	0.014333333333343034
592.9943417752039	0.19766666666667637
592.57868068807	0.07066666666665697
592.1630006630813	0.019666666666671516
591.7473016989411	0.1389999999999903
591.3315837943614	0.1553333333333285
590.9158469480456	0.04233333333332363
590.5000911586968	0.09566666666665696
590.0843164250163	0.10166666666666667
589.6685227457202	0.065
589.2527101195077	0.13233333333332364
588.8368785450818	0.09166666666666666
588.4210280211462	0.14166666666666666
588.0051585464104	0.1489999999999903
587.5892701195799	0.16
587.1733627393536	0.1539999999999903
586.7574364044372	0.17066666666665697
586.341491113538	0.20233333333332362
585.9255268653596	0.13199999999999515
585.5095436586031	0.18800000000000486
585.0935414919694	0.14533333333332848
584.6775203641728	0.14066666666665698
584.26148027391	0.10300000000000485
583.8454212198844	0.12266666666667637
583.4293432007971	0.12133333333333818
583.0132462153579	0.11833333333333333
582.5971302622678	0.11366666666666182
582.1809953402259	0.12733333333332364
581.7648414479354	0.15866666666666182
581.3486685841062	0.22766666666667637
580.9324767474351	0.19033333333332847
580.5162659366252	0.1786666666666618
580.1000361503757	0.30699999999999517
579.6837873873984	0.14699999999999516
579.267519646388	0.14733333333332363
578.8512329260478	0.19266666666667637
578.4349272250832	0.12333333333333334
578.0186025421867	0.145
577.6022588760703	0.05533333333332848
577.1858962254329	0.2013333333333382
576.7695145889734	0.13933333333334302
576.3531139653909	0.14
575.9366943533951	0.20300000000000484
575.5202557516828	0.16166666666666665
575.1037981589529	0.12800000000000486
574.6873215739046	0.16966666666667152
574.2708259952475	0.17666666666666667
573.854311421674	0.0689999999999903
573.4377778518897	0.11733333333332363
573.0212252845891	0.14199999999999516
572.6046537184778	0.19966666666667152
572.1880631522547	0.09033333333332848
571.7714535846209	0.14166666666666666
571.3548250142687	0.18733333333332364
570.9381774399104	0.2
570.5215108602383	0.1296666666666715
570.1048252739535	0.20833333333333334
569.6881206797506	0.19233333333332364
569.2713970763372	0.17633333333333817
568.854654462408	0.18066666666665696
568.4378928366642	0.10100000000000971
568.0211121978002	0.08933333333334303
567.6043125445195	0.18133333333333818
567.187493875521	0.12133333333333818
566.7706561895014	0.19233333333332364
566.3537994851577	0.28566666666665697
565.9369237611908	0.16800000000000484
565.5200290162996	0.04566666666665697
565.1031152491812	0.08266666666667637
564.6861824585301	0.23966666666667152
564.2692306430516	0.16333333333333333
563.8522598014383	0.19866666666666183
563.4352699323913	0.10866666666666182
563.0182610345986	0.11466666666667152
562.6012331067724	0.17633333333333817
562.1841861476007	0.11566666666665697
561.7671201557823	0.1289999999999903
561.3500351300121	0.2460000000000097
560.9329310689911	0.23433333333334302
560.515807971416	0.2060000000000097
560.0986658359838	0.21266666666667636
559.6815046613867	0.23833333333333334
559.2643244463217	0.17833333333333334
558.847125189492	0.2013333333333382
558.4299068895878	0.19300000000000486
558.012669545306	0.21733333333332364
557.5954131553412	0.14033333333332848
557.1781377183946	0.12766666666667636
556.7608432331607	0.13533333333332848
556.343529698332	0.08133333333333818
555.926197112601	0.1939999999999903
555.5088454746709	0.23766666666667638
555.0914747832342	0.24633333333333818
554.6740850369855	0.2713333333333382
554.2566762346152	0.31199999999999517
553.8392483748285	0.21466666666667153
553.4218014563138	0.3030000000000049
553.0043354777655	0.2676666666666764
552.5868504378763	0.24
552.1693463353471	0.27699999999999514
551.7518231688704	0.2153333333333285
551.3342809371366	0.15866666666666182
550.91671963884	0.225
550.49913927268	0.25800000000000484
550.0815398373467	0.29300000000000487
549.6639213315347	0.275
549.2462837539342	0.23066666666665697
548.8286271032442	0.2289999999999903
548.4109513781551	0.329333333333343
547.9932565773614	0.24300000000000485
547.5755426995535	0.3326666666666764
547.1578097434281	0.3333333333333333
546.7400577076776	0.26699999999999513
546.3222865909923	0.35199999999999515
545.9044963920649	0.2633333333333333
545.4866871095918	0.2853333333333285
545.0688587422615	0.35899999999999027
544.6510112887704	0.35899999999999027
544.2331447478026	0.41433333333334305
543.8152591180612	0.3983333333333333
543.39735439823	0.3646666666666715
542.979430587006	0.35133333333333816
542.5614876830728	0.30266666666667635
542.1435256851336	0.3636666666666618
541.7255445918723	0.265
541.3075444019836	0.4036666666666618
540.8895251141511	0.40433333333334304
540.471486727076	0.4703333333333285
540.0534292394465	0.43733333333332364
539.6353526499506	0.4010000000000097
539.217256957283	0.4613333333333382
538.7991421601253	0.440666666666657
538.3810082571806	0.5266666666666666
537.962855247133	0.47833333333333333
537.5446831286725	0.5003333333333285
537.1264919004875	0.4889999999999903
536.7082815612724	0.44800000000000484
536.2900521097155	0.5526666666666764
535.871803544509	0.6343333333333431
535.4535358643325	0.5303333333333284
535.0352490678893	0.5066666666666667
534.6169431538631	0.520666666666657
534.19861812094	0.6233333333333333
533.78027396781	0.5969999999999952
533.361910693168	0.6383333333333333
532.9435282956977	0.7230000000000049
532.5251267740915	0.7123333333333236
532.1067061270311	0.7046666666666715
531.6882663532132	0.8280000000000048
531.2698074513237	0.8606666666666569
530.8513294200487	0.8433333333333334
530.4328322580762	0.7880000000000048
530.0143159641009	0.8036666666666619
529.5957805368043	0.9403333333333285
529.1772259748768	0.9573333333333236
528.7586522770022	1.011333333333338
528.3400594418729	1.0410000000000097
527.9214474681769	1.1613333333333382
527.5028163546002	1.1286666666666618
527.0841660998245	1.229333333333343
526.6654967025466	1.2376666666666765
526.2468081614481	1.2989999999999904
525.8281004752192	1.375666666666657
525.4093736425393	1.4969999999999952
524.9906276621032	1.5833333333333333
524.5718625325945	1.6469999999999951
524.1530782526993	1.7753333333333285
523.7342748211013	1.8873333333333235
523.3154522364929	2.0053333333333283
522.896610497558	2.1626666666666763
522.4777496029803	2.33899999999999
522.0588695514436	2.4713333333333383
521.6399703416404	2.6423333333333234
521.2210519722521	3.026333333333338
520.8021144419671	3.3966666666666665
520.3831577494668	3.6623333333333234
519.9641818934351	3.975
519.5451868725623	4.460333333333328
519.1261726855342	4.972666666666677
518.7071393310304	5.563000000000005
518.2880868077347	6.223666666666662
517.8690151143393	6.958333333333333
517.449924249526	7.864333333333343
517.0308142119765	9.031666666666666
516.6116850003721	10.37899999999999
516.1925366134055	11.747666666666676
515.7733690497562	13.335
515.3541823081079	15.253333333333334
514.934976387142	16.90633333333334
514.5157512855491	18.593333333333334
514.0965070020062	20.282666666666675
513.6772435352017	21.186999999999994
513.2579608838126	21.856999999999996
512.8386590465294	22.111333333333338
512.4193380220314	21.663333333333334
511.99999780900464	20.772333333333325
511.580638406122	18.925666666666658
511.1612598120781	17.647333333333325
510.7418620255524	16.005
510.3224450452243	14.22899999999999
509.9030088697755	12.814666666666671
509.48355349789404	11.241666666666667
509.06407892825723	9.988000000000005
508.6445851595488	8.762333333333324
508.22507219044604	7.838333333333333
507.8055400196393	6.821999999999995
507.3859886458058	6.16399999999999
506.96641806762716	5.563000000000005
506.5468282837806	5.060333333333329
506.12721929295435	4.532333333333324
505.7075910938277	4.134333333333343
505.2879436850803	3.7373333333333236
504.8682770653892	3.486999999999995
504.4485912334448	3.1696666666666715
504.02888618792	3.013333333333333
503.6091619274987	2.743333333333333
503.1894184508558	2.5269999999999953
502.76965575668174	2.34399999999999
502.3498738436494	2.1623333333333234
501.93007271044036	2.1076666666666766
501.51025235573195	1.9973333333333236
501.09041277821007	1.8560000000000096
500.67055397655207	1.8696666666666715
500.25067594943516	1.7289999999999903
499.8307786955409	1.5896666666666714
499.41086221354453	1.481999999999995
498.9909265021319	1.5373333333333237
498.5709715599803	1.3319999999999952
498.15099738576487	1.4
497.73100397816495	1.288000000000005
497.31099133586446	1.2213333333333383
496.89095945753843	1.1266666666666667
496.4709083418663	1.1030000000000049
496.050837987521	1.135666666666657
495.6307483931907	0.9583333333333334
495.21063955754823	0.9913333333333382
494.790511479271	0.9926666666666764
494.37036415703403	0.9513333333333381
493.95019758952327	0.9066666666666666
493.53001177541165	0.88
493.1098067133765	0.78
492.68958240209287	0.7633333333333333
492.26933884024237	0.8236666666666618
491.8490760265023	0.7589999999999903
491.42879395954776	0.76
491.0084926380517	0.7596666666666715
490.5881720607	0.8076666666666764
490.1678322261635	0.6563333333333382
489.7474731331217	0.7483333333333333
489.32709478024304	0.7003333333333285
488.9066971662135	0.7310000000000098
488.48628028970614	0.5966666666666667
488.0658441493982	0.6493333333333431
487.6453887439581	0.554333333333343
487.224914072072	0.5753333333333285
486.8044201324106	0.6183333333333333
486.38390692364896	0.6176666666666764
485.96337444446226	0.6356666666666569
485.5428226935299	0.5016666666666667
485.1222516695248	0.5716666666666667
484.7016613711199	0.6163333333333382
484.28105179699037	0.47
483.86042294581335	0.4880000000000049
483.43977481626627	0.42266666666667635
483.01910740701766	0.41199999999999515
482.59842071674257	0.4239999999999903
482.1777147441205	0.4710000000000097
481.75698948782224	0.425
481.33624494652287	0.49233333333332363
480.91548111889534	0.4053333333333285
480.4946980036104	0.4413333333333382
480.0738955993496	0.5073333333333236
479.65307390478165	0.41300000000000486
479.2322329185816	0.444333333333343
478.81137263941804	0.4296666666666715
478.3904930659726	0.44033333333332847
477.9695941969139	0.42333333333333334
477.5486760309148	0.40066666666665696
477.127738566644	0.42633333333333817
476.70678180278304	0.3736666666666618
476.28580573800053	0.2903333333333285
475.86481037096945	0.24666666666666667
475.44379570035835	0.3219999999999951
475.0227617248467	0.3710000000000097
474.6017084431009	0.31266666666667636
474.1806358537961	0.3913333333333382
473.75954395560086	0.3486666666666618
473.3384327471903	0.3680000000000048
472.91730222723737	0.3163333333333382
472.4961523944085	0.3860000000000097
472.07498324737657	0.29
471.6537947848168	0.2703333333333285
471.2325870053998	0.4063333333333382
470.81135990779217	0.34833333333333333
470.3901134906646	0.29933333333334305
469.9688477526965	0.2939999999999903
469.54756269254995	0.355
469.12625830890016	0.250666666666657
468.7049346004113	0.2363333333333382
468.28359156576283	0.305
467.86222920361905	0.32066666666665694
467.4408475126529	0.36266666666667635
467.0194464915286	0.2813333333333382
466.5980261389256	0.4023333333333236
466.176586453506	0.2710000000000097
465.75512743394273	0.33933333333334303
465.3336490789022	0.2689999999999903
464.91215138705746	0.24733333333332364
464.490634357077	0.17266666666667638
464.0690979876294	0.329333333333343
463.647542277379	0.36699999999999516
463.22596722500305	0.27800000000000485
462.80437282916796	0.2086666666666618
462.3827590885402	0.26933333333334303
461.96112600178395	0.2676666666666764
461.5394735675766	0.22866666666666183
461.1178017845845	0.300666666666657
460.69611065147194	0.2496666666666715
460.2744001669097	0.3460000000000097
459.8526703295598	0.2633333333333333
459.4309211380996	0.27199999999999513
459.00915259119125	0.22133333333333818
458.58736468750317	0.22333333333333333
458.1655574256997	0.24633333333333818
457.74373080445605	0.1810000000000097
457.321884822432	0.22166666666666668
456.9000194782984	0.23966666666667152
456.47813477071736	0.15600000000000971
456.0562306983639	0.14566666666665695
455.634307259898	0.2439999999999903
455.2123644539904	0.13966666666667152
454.7904022793011	0.1313333333333382
454.36842073450293	0.17533333333332848
453.9464198182602	0.18233333333332363
453.5243995292416	0.20300000000000484
453.1023598661026	0.16833333333333333
452.6803008275226	0.2013333333333382
452.2582224121617	0.15166666666666667
451.83612461868404	0.17699999999999516
451.41400744575174	0.17800000000000485
450.9918708920399	0.11199999999999515
450.56971495620627	0.2139999999999903
450.1475396369195	0.115
449.72534493283945	0.12266666666667637
449.3031308426391	0.22833333333333333
448.88089736497835	0.24033333333332849
448.4586444985215	0.23533333333332848
448.03637224192846	0.1360000000000097
447.6140805938743	0.21933333333334304
447.19176955301896	0.16966666666667152
446.7694391180224	0.20333333333333334
446.347089287551	0.27233333333332366
445.9247200602713	0.3030000000000049
445.50233143484525	0.24466666666667153
445.079923409935	0.32300000000000484
444.6574959842027	0.24333333333333335
444.2350491563169	0.2760000000000097
443.8125829249397	0.2839999999999903
443.390097288731	0.24133333333333817
442.9675922463529	0.264333333333343
442.54506779647625	0.2916666666666667
442.12252393775657	0.2589999999999903
441.69996066885807	0.2936666666666618
441.277377988443	0.2860000000000097
440.85477589517325	0.26166666666666666
440.43215438771324	0.2010000000000097
440.00951346472505	0.2519999999999952
439.58685312487074	0.2389999999999903
439.16417336680587	0.19699999999999515
438.7414741892034	0.24166666666666667
438.31875559071676	0.24300000000000485
437.8960175700124	0.205
437.4732601257437	0.27199999999999513
437.05048325658146	0.2139999999999903
436.62768696118343	0.21433333333334303
436.2048712382074	0.24733333333332364
435.7820360863154	0.2760000000000097
435.3591815041739	0.3436666666666618
434.9363074904384	0.32866666666666183
434.51341404377115	0.2889999999999903
434.09050116282765	0.2936666666666618
433.6675688462765	0.24166666666666667
433.24461709277546	0.37033333333332846
432.8216459009802	0.34433333333334304
432.3986552695505	0.3710000000000097
431.9756451971529	0.3813333333333382
431.55261568244293	0.4289999999999903
431.12956672408274	0.4023333333333236
430.70649832072354	0.2986666666666618
430.28341047103396	0.3573333333333236
429.8603031736717	0.329333333333343
429.43717642729246	0.33199999999999513
429.0140302305539	0.37166666666666665
428.5908645821203	0.3883333333333333
428.1676794806494	0.3730000000000048
427.74447492479686	0.36199999999999516
427.3212509132182	0.43233333333332363
426.89800744458205	0.41800000000000487
426.4747445175375	0.40699999999999514
426.05146213074664	0.439333333333343
425.6281602828629	0.445
425.20483897255264	0.4083333333333333
424.7814981984672	0.30233333333332363
424.3581379592665	0.3239999999999903
423.9347582536018	0.3739999999999903
423.5113590801394	0.385
423.0879404375329	0.35066666666665697
422.66450232444	0.3863333333333382
422.24104473951405	0.3403333333333285
421.8175676814172	0.32800000000000484
421.39407114880504	0.30133333333333817
420.97055514033093	0.235
420.54701965465495	0.3160000000000097
420.1234646904282	0.28433333333334304
419.6998902463128	0.2826666666666764
419.2762963209644	0.3046666666666715
418.8526829130364	0.37
418.4290500211822	0.37333333333333335
418.00539764406386	0.33666666666666667
417.5817257803349	0.25266666666667636
417.15803442864865	0.3046666666666715
416.7343235876586	0.3489999999999903
416.3105932560246	0.4173333333333236
415.8868434324023	0.31166666666666665
415.4630741154451	0.3213333333333382
415.03928530380216	0.25166666666666665
414.61547699613976	0.25466666666667154
414.1916491911049	0.3253333333333285
413.767801887351	0.2339999999999903
413.34393508353367	0.2853333333333285
412.9200487783128	0.325
412.49614297033526	0.2996666666666715
412.0722176582611	0.2653333333333285
411.64827284073493	0.385
411.22430851642116	0.329333333333343
410.80032468396655	0.3436666666666618
410.376321342029	0.26866666666666184
409.9522984892553	0.35800000000000487
409.5282561243077	0.425666666666657
409.1041942458351	0.30766666666667636
408.6801128524889	0.30533333333332846
408.2560119429202	0.23800000000000485
407.83189151578915	0.40566666666665696
407.40775156974246	0.245
406.9835921034358	0.23800000000000485
406.5594131155161	0.20166666666666666
406.1352146046411	0.3
405.7109965694642	0.33199999999999513
405.28675900863453	0.23800000000000485
404.86250192079893	0.37
404.43822530461745	0.29300000000000487
404.01392915874123	0.2363333333333382
403.5896134818172	0.24433333333334303
403.1652782724945	0.2086666666666618
402.740923529433	0.24333333333333335
402.31654925127964	0.18933333333334304
401.8921554366857	0.2539999999999903
401.4677420843024	0.30833333333333335
401.0433091927745	0.19166666666666668
400.61885676076406	0.24699999999999514
400.1943847869137	0.22866666666666183
399.7698932698746	0.27699999999999514
399.345382208296	0.285
398.9208516008334	0.23066666666665697
398.4963014461336	0.2973333333333236
398.0717317428458	0.33699999999999514
397.647142489617	0.36133333333333817
397.2225336851048	0.23800000000000485
396.797905327954	0.27699999999999514
396.3732574168138	0.2910000000000097
395.9485899503309	0.22533333333332847
395.52390292716103	0.20199999999999516
395.0991963459511	0.2289999999999903
394.6744702053458	0.31333333333333335
394.2497245039943	0.27166666666666667
393.8249592405521	0.37033333333332846
393.40017441366183	0.39866666666666184
392.9753700219747	0.3276666666666764
392.5505460641355	0.33300000000000485
392.1257025387955	0.2039999999999903
391.70083944460373	0.29066666666665697
391.2759567802049	0.2086666666666618
390.8510545442461	0.24066666666665695
390.42613273537836	0.2510000000000097
390.00119135225094	0.29
389.57623039350636	0.31266666666667636
389.1512498577893	0.3
388.72624974375765	0.319333333333343
388.3012300500495	0.30699999999999517
387.8761907753162	0.35266666666667634
387.45113191820036	0.2996666666666715
387.0260534773531	0.30233333333332363
386.60095545141934	0.329333333333343
386.1758378390437	0.30199999999999516
385.7507006388731	0.19566666666665697
385.3255438495567	0.19433333333334304
384.90036746973703	0.31266666666667636
384.47517149806316	0.32566666666665695
384.0499559331755	0.32066666666665694
383.6247207737275	0.39433333333334303
383.1994660183596	0.2703333333333285
382.77419166571866	0.3169999999999952
382.3488977144451	0.2586666666666618
381.92358416319234	0.2960000000000097
381.498251010603	0.22866666666666183
381.0728982553196	0.329333333333343
380.6475258959869	0.24266666666667636
380.2221339312475	0.32733333333332365
379.7967223597549	0.3303333333333285
379.37129118014496	0.37766666666667636
378.94584039106695	0.27666666666666667
378.5203699911569	0.27
378.09487997907036	0.37166666666666665
377.6693703534434	0.33233333333332366
377.243841112923	0.36833333333333335
376.8182922561495	0.33933333333334303
376.3927237817721	0.36766666666667636
375.96713568843103	0.3460000000000097
375.541527974769	0.38733333333332365
375.11590063942424	0.34933333333334304
374.6902536810523	0.25300000000000483
374.2645870982871	0.35899999999999027
373.8389008897734	0.2689999999999903
373.41319505415163	0.3460000000000097
372.9874695900686	0.42833333333333334
372.561724496167	0.3396666666666715
372.1359597710851	0.2696666666666715
371.7101754134632	0.28933333333334305
371.2843714219504	0.24766666666667636
370.8585477951872	0.22366666666666182
370.43270453181174	0.32300000000000484
370.00684163046236	0.259333333333343
369.5809590897924	0.26366666666666183
369.1550569084336	0.30266666666667635
368.7291350850329	0.27
368.30319361822427	0.26733333333332365
367.87723250665454	0.26933333333334303
367.4512517489663	0.2786666666666618
367.0252513437956	0.3516666666666667
366.5992312897829	0.2989999999999903
366.17319158557297	0.29766666666667635
365.747132229804	0.2039999999999903
365.32105322111636	0.32566666666665695
364.8949545581462	0.3303333333333285
364.46883623954045	0.2653333333333285
364.0426982639373	0.2910000000000097
363.616540629975	0.32466666666667154
363.19036333628964	0.2746666666666715
362.7641663815303	0.3163333333333382
362.3379497643287	0.3403333333333285
361.9117134833253	0.3186666666666618
361.4854575371626	0.37833333333333335
361.05918192447024	0.44466666666667154
360.6328866439016	0.3603333333333285
360.20657169408406	0.2103333333333285
359.7802370736624	0.38733333333332365
359.3538827812684	0.33699999999999514
358.92750881554895	0.31466666666667154
358.5011151751379	0.415
358.07470185867567	0.3546666666666715
357.6482688647919	0.38866666666666183
357.22181619213774	0.29266666666667634
356.7953438393429	0.31266666666667636
356.3688518050455	0.37766666666667636
355.94234008788163	0.41
355.51580868649387	0.3403333333333285
355.0892575995162	0.41766666666667634
354.662686825589	0.40433333333334304
354.2360963633396	0.3573333333333236
353.8094862114171	0.31733333333332364
353.3828563684533	0.3326666666666764
352.95620683308425	0.3510000000000097
352.5295376039439	0.4076666666666764
352.1028486796747	0.35300000000000487
351.67614005890846	0.3376666666666764
351.24941174028345	0.39566666666665695
350.8226637224314	0.33933333333334303
350.395896003997	0.3963333333333382
349.9691085836077	0.3460000000000097
349.5423014599039	0.3413333333333382
349.11547463151516	0.3946666666666715
348.6886280970863	0.4189999999999903
348.26176185524673	0.4666666666666667
347.8348759046305	0.4089999999999903
347.40797024387143	0.37266666666667636
346.9810448716122	0.3983333333333333
346.55409978648225	0.48333333333333334
346.12713498711554	0.4110000000000097
345.70015047214383	0.32466666666667154
345.2731462402119	0.3883333333333333
344.8461222899449	0.425666666666657
344.41907861998106	0.4173333333333236
343.9920152289479	0.41699999999999515
343.56493211548786	0.3963333333333382
343.1378292782306	0.4060000000000097
342.71070671581214	0.3926666666666764
342.2835644268599	0.465
341.85640241001437	0.37966666666667154
341.42922066390713	0.4330000000000048
341.0020191871679	0.41266666666667634
340.5747979784326	0.38
340.14755703633097	0.3630000000000049
339.7202963595011	0.3436666666666618
339.2930159465705	0.34
338.86571579617737	0.2753333333333285
338.4383959069447	0.3760000000000097
338.0110562775131	0.4510000000000097
337.5836969065141	0.4803333333333285
337.15631779257734	0.5730000000000048
336.72891893433024	0.435
336.30150033041315	0.40300000000000485
335.8740619794536	0.435666666666657
335.44660388008316	0.42300000000000487
335.01912603093155	0.345
334.59162843063257	0.43966666666667154
334.164111077818	0.32699999999999513
333.7365739711174	0.3786666666666618
333.3090171091582	0.4313333333333382
332.88144049057644	0.3403333333333285
332.4538441140017	0.3946666666666715
332.02622797806356	0.36333333333333334
331.59859208138937	0.3213333333333382
331.1709364226152	0.3789999999999903
330.7432610003664	0.3933333333333333
330.31556581327675	0.4173333333333236
329.8878508599694	0.37166666666666665
329.46011613908246	0.38733333333332365
329.0323616492413	0.4469999999999951
328.6045873890776	0.5776666666666763
328.1767933572123	0.564333333333343
327.7489795522879	0.5269999999999951
327.32114597292536	0.4653333333333285
326.89329261775424	0.38033333333332847
326.4654194853997	0.44233333333332364
326.0375265745001	0.4153333333333285
325.60961388367843	0.45699999999999513
325.1816814115642	0.375666666666657
324.75372915678065	0.3486666666666618
324.3257571179637	0.45300000000000484
323.8977652937386	0.425666666666657
323.46975368273064	0.4286666666666618
323.0417222835672	0.48133333333333816
322.61367109488435	0.42333333333333334
322.18560011530076	0.365666666666657
321.75750934344825	0.49266666666667636
321.32939877795206	0.46
320.9012684174352	0.3896666666666715
320.47311826053584	0.4639999999999903
320.0449483058729	0.44466666666667154
319.6167585520736	0.4503333333333285
319.18854899776323	0.3976666666666764
318.76031964157573	0.41633333333333816
318.332070482132	0.445
317.9038015180594	0.4266666666666667
317.4755127479788	0.43733333333332364
317.04720417052425	0.48933333333334306
316.6188757843208	0.4676666666666764
316.1905275879894	0.5166666666666667
315.76215958015536	0.4063333333333382
315.3337717594525	0.4596666666666715
314.9053641244995	0.4936666666666618
314.4769366739217	0.4066666666666667
314.0484894063444	0.4913333333333382
313.6200223203948	0.5043333333333431
313.19153541469825	0.5813333333333381
312.7630286878778	0.5233333333333333
312.3345021385521	0.6123333333333236
311.9059557653574	0.6866666666666666
311.4773895669123	0.6566666666666666
311.04880354184195	0.6423333333333237
310.6201976887631	0.6123333333333236
310.1915720063139	0.5919999999999952
309.76292649310653	0.7213333333333382
309.33426114777274	0.710666666666657
308.90557596892484	0.669333333333343
308.4768709551988	0.5969999999999952
308.04814610521345	0.5966666666666667
307.61940141759175	0.589333333333343
307.1906368909525	0.574333333333343
306.76185252392514	0.7033333333333334
306.3330483151308	0.5819999999999952
305.9042242631923	0.6186666666666618
305.4753803667263	0.7276666666666763
305.0465166243624	0.6286666666666618
304.61763303472367	0.6486666666666618
304.1887295964288	0.6389999999999904
303.7598063080965	0.6116666666666667
303.3308631683563	0.6196666666666715
302.90190017582705	0.660666666666657
302.4729173291296	0.6913333333333381
302.04391462688477	0.61
301.61489206771347	0.6910000000000097
301.18584965024104	0.6963333333333381
300.7567873730861	0.6633333333333333
300.3277052348696	0.7306666666666569
299.89860323421027	0.7563333333333382
299.4694813697333	0.7183333333333334
299.04033964005737	0.72
298.6111780438057	0.709333333333343
298.18199657959036	0.8066666666666666
297.752795246041	0.7876666666666764
297.3235740417741	0.809333333333343
296.8943329654107	0.7726666666666764
296.46507201556506	0.8583333333333333
296.0357911908646	0.8146666666666715
295.6064904899281	0.8516666666666667
295.17716991137206	0.8126666666666764
294.7478294538131	0.7386666666666618
294.3184691158764	0.8589999999999903
293.8890888961806	0.7666666666666667
293.4596887933425	0.7773333333333237
293.03026880597844	0.8089999999999903
292.6008289327138	0.7
292.1713691721628	0.7766666666666666
291.7418895229465	0.7469999999999951
291.312389983677	0.67
290.8828705529796	0.6930000000000048
290.4533312294709	0.7276666666666763
290.02377201176955	0.6586666666666618
289.59419289848563	0.7089999999999903
289.1645938882465	0.7423333333333236
288.7349749796687	0.6663333333333382
288.3053361713668	0.6816666666666666
287.8756774619528	0.6419999999999951
287.44599885005636	0.6526666666666764
287.0163003342854	0.5986666666666618
286.5865819132608	0.6146666666666715
286.1568435855947	0.6736666666666619
285.7270853499102	0.67
285.2973072048218	0.6086666666666618
284.8675091489438	0.6660000000000097
284.4376911808905	0.5960000000000097
284.00785329928516	0.5416666666666666
283.577995502742	0.5796666666666715
283.14811778987115	0.47633333333333816
282.7182201592914	0.5166666666666667
282.28830260962343	0.5586666666666619
281.85836513947754	0.5433333333333333
281.42840774747015	0.5569999999999952
280.9984304322157	0.47766666666667634
280.5684331923285	0.3863333333333382
280.13841602642736	0.47766666666667634
279.70837893312665	0.5119999999999951
279.2783219110408	0.5223333333333237
278.84824495877757	0.5319999999999951
278.41814807496235	0.5003333333333285
277.98803125820507	0.5323333333333237
277.557894507118	0.6053333333333285
277.12773782031337	0.6283333333333333
276.6975611964142	0.5169999999999951
276.26736463402625	0.6386666666666618
275.8371481317683	0.534333333333343
275.4069116882459	0.5530000000000048
274.97665530208224	0.5326666666666764
274.54637897188735	0.5480000000000048
274.11608269627345	0.44766666666667637
273.68576647384845	0.5860000000000097
273.2554303032375	0.44300000000000483
272.82507418304425	0.495
272.39469811188513	0.46233333333332366
271.9643020883682	0.5476666666666764
271.533886111112	0.475
271.10345017872675	0.5260000000000097
270.67299428982454	0.5213333333333382
270.2425184430133	0.4753333333333285
269.8120226369118	0.435666666666657
269.38150687013	0.36266666666667635
268.9509711412781	0.37733333333332364
268.52041544896383	0.3433333333333333
268.08983979180596	0.43699999999999517
267.65924416841244	0.32166666666666666
267.2286285773954	0.389333333333343
266.7979930173607	0.44466666666667154
266.36733748692905	0.3403333333333285
265.9366619847041	0.32
265.50596650929805	0.23199999999999515
265.07525105931876	0.3
264.64451563338287	0.3333333333333333
264.21376023009816	0.1789999999999903
263.78298484807476	0.18866666666666182
263.3521894859162	0.27066666666665695
262.9213741422434	0.12033333333332848
262.4905388156598	0.18733333333332364
262.0596835047756	0.11866666666666181
261.62880820819856	0.05966666666667152
261.1979129245432	0.09233333333332364
260.7669976524172	0.15866666666666182
260.3360623904265	0.06266666666667636
259.90510713718317	0.15166666666666667
259.47413189128866	0.07733333333332364
259.04313665136385	0.1239999999999903
258.6121214160123	0.04633333333333818
258.1810861838397	0.0739999999999903
257.75003095345176	0.08199999999999515
257.31895572346724	0.115
256.8878604924875	0.05566666666665696
256.45674525912045	0.011333333333338184
256.0256100219717	0.06699999999999515
255.59445477965582	-0.06566666666665696
255.1632795307762	0.03833333333333333
254.73208427393865	-0.05333333333333334
254.300869007751	-0.09533333333332848
253.8696337308255	-0.011000000000009702
253.4383784417657	-0.04066666666665696
253.0071031391773	-0.030333333333328483
252.57580782166383	-0.1253333333333285
252.1444924878419	0.006333333333338184
251.71315713631068	0.0339999999999903
251.28180176568023	0.043666666666661816
250.85042637454976	-0.043333333333333335
250.41903096153368	-0.018666666666661814
249.9876155252377	0.011333333333338184
249.55618006426315	-0.04800000000000485
249.12472457721364	0.02800000000000485
248.69324906270137	0.03866666666666182
248.26175351933205	-0.12433333333334304
247.83023794570707	-0.04866666666666181
247.3987023404278	0.028333333333333332
246.96714670210864	-0.04466666666667152
246.53557102935096	0.14199999999999516
246.10397532076047	-0.016666666666666666
245.67235957493423	-0.055
245.24072379048877	0.035
244.8090679660212	0.041666666666666664
244.37739210013714	-0.016333333333338185
243.94569619143803	-0.06300000000000484
243.51398023853605	0.021333333333338183
243.0822442400283	-0.02
242.65048819452264	-0.030666666666656964
242.2187121006139	0.028333333333333332
241.78691595691873	-0.023333333333333334
241.35509976203193	-0.01699999999999515
240.9232635145614	-0.005333333333328483
240.49140721310636	-0.027666666666676366
240.059530856266	0.03199999999999515
239.62763444265474	-0.04733333333332363
239.1957179708696	0.01800000000000485
238.76378143951197	0.020666666666656966
238.33182484718105	0.030333333333328483
237.89984819248693	-0.07833333333333334
237.46785147403094	-0.03699999999999515
237.03583469041013	-0.0839999999999903
236.6037978402259	-0.01
236.1717409220883	0.0019999999999951493
235.7396639345922	-0.05633333333333818
235.30756687634332	0.0610000000000097
234.87544974593433	0.011000000000009702
234.44331254197968	0.035
234.01115526307206	0.060333333333328486
233.57897790781496	-0.005333333333328483
233.1467804748055	-0.007333333333323632
232.7145629626515	-0.008333333333333333
232.28232536995006	-0.002333333333323632
231.8500676953025	-0.017333333333323632
231.41778993730375	-0.007333333333323632
230.98549209456385	-0.003999999999990299
230.55317416567763	-0.06333333333333334
230.12083614924651	-0.0310000000000097
229.68847804386536	0.030333333333328483
229.2560998481399	0.07033333333332849
228.82370156066932	0.006666666666666667
228.39128318005285	-0.02033333333332848
227.95884470488318	0.03333333333333333
227.5263861337704	-0.04
227.09390746530931	0.07800000000000486
226.66140869809703	0.025
226.22888983073057	0.004666666666671517
225.79635086181347	0.044333333333343036
225.36379178994494	-0.04766666666667637
224.93121261371985	-0.002666666666676368
224.4986133317331	0.04
224.06599394259257	0.0839999999999903
223.63335444489314	-0.011000000000009702
223.20069483722963	-0.006999999999995149
222.76801511819698	0.06199999999999515
222.33531528640088	0.11066666666665696
221.9025953404362	0.06733333333332363
221.4698552788978	0.1553333333333285
221.0370951003849	0.1413333333333382
220.6043148034924	0.035
220.17151438682168	0.013666666666661815
219.73869384896756	0.12066666666665697
219.30585318852715	0.15600000000000971
218.87299240409308	0.08600000000000971
218.440111494269	0.1060000000000097
218.0072104576475	0.06866666666666181
217.5742892928257	-0.02300000000000485
217.1413479983941	0.05366666666666182
216.70838657295846	0.04066666666665696
216.27540501510927	0.012666666666676369
215.8424033234436	0.0010000000000097012
215.40938149655196	0.0360000000000097
214.97633953303793	0.085
214.5432774314942	0.044333333333343036
214.11019519051567	0.06800000000000485
213.67709280869065	0.008666666666661816
213.24397028462707	-0.005333333333328483
212.8108276169111	-0.033666666666661814
212.37766480413984	0.004666666666671517
211.9444818449016	-0.028666666666661816
211.51127873780212	-0.035
211.0780554814319	-0.07533333333332848
210.64481207438155	-0.0639999999999903
210.21154851524156	-0.06933333333334303
209.77826480261763	0.06833333333333333
209.34496093509603	0.10800000000000486
208.91163691127156	-0.003666666666661816
208.47829272973476	0.06266666666667636
208.0449283890849	0.02033333333332848
207.6115438879125	0.07233333333332363
207.17813922481238	0.011000000000009702
206.74471439836861	-0.0339999999999903
206.31126940718693	0.03
205.87780424985567	-0.17
