768.7678709118609	-0.16333333333333333
768.3601795435875	0.095
767.9524697795084	0.11699999999999515
767.5447416183789	0.1889999999999903
767.1369950589522	0.215
766.7292300999793	0.19699999999999515
766.321446740222	0.1313333333333382
765.9136449784291	0.21366666666666181
765.5058248133583	0.10133333333333819
765.0979862437583	0.10199999999999515
764.6901292683908	0.04199999999999515
764.2822538860049	0.07066666666665697
763.8743600953579	0.10866666666666182
763.4664478951966	0.08133333333333818
763.0585172842827	0.11866666666666181
762.6505682613673	0.15366666666666182
762.2426008252036	0.021000000000009702
761.8346149745404	0.1339999999999903
761.4266107081372	0.13066666666665697
761.0185880247452	0.11833333333333333
760.6105469231176	0.01199999999999515
760.202487402003	0.04
759.7944094601592	0.10333333333333333
759.3863130963391	0.08266666666667637
758.9781983092939	0.05633333333333818
758.5700650977723	0.021000000000009702
758.1619134605319	0.03666666666666667
757.7537433963257	0.08366666666666181
757.3455549039006	0.10800000000000486
756.9373479820074	0.09933333333334303
756.529122629406	0.06666666666666667
756.1208788448427	0.07800000000000486
755.7126166270709	0.04699999999999515
755.3043359748374	0.04199999999999515
754.8960368869017	0.0739999999999903
754.4877193620104	0.13833333333333334
754.0793833989146	0.04
753.671028996363	0.10166666666666667
753.2626561531134	0.0910000000000097
752.8542648679122	0.013000000000004851
752.4458551395104	0.0360000000000097
752.0374269666613	0.09533333333332848
751.6289803481072	0.07433333333334304
751.2205152826077	0.04666666666666667
750.8120317689096	0.085
750.4035298057637	0.08433333333334303
749.9950093919146	0.08133333333333818
749.586470526122	0.09366666666666182
749.1779132071304	0.0839999999999903
748.7693374336906	0.12333333333333334
748.3607432045474	0.10733333333332364
747.9521305184559	0.02
747.5434993741673	0.050666666666656965
747.134849770426	0.036333333333338186
746.7261817059784	0.06833333333333333
746.3174951795825	0.1313333333333382
745.9087901899825	0.15266666666667636
745.500066735925	0.08533333333332849
745.091324816159	0.08033333333332848
744.6825644294398	0.09466666666667152
744.2737855745097	0.029333333333343033
743.8649882501174	0.004333333333343035
743.4561724550099	0.05800000000000485
743.0473381879422	0.04
742.6384854476568	0.0639999999999903
742.2296142329003	0.04533333333332848
741.8207245424215	0.02733333333332363
741.4118163749715	0.10666666666666667
741.002889729297	0.11433333333334303
740.5939446041443	0.09433333333334304
740.1849809982541	0.0610000000000097
739.7759989103856	0.08833333333333333
739.3669983392814	0.08633333333333819
738.957979283686	0.14833333333333334
738.5489417423437	0.14933333333334303
738.13988571401	0.0610000000000097
737.730811197425	0.16233333333332364
737.3217181913398	0.05699999999999515
736.9126066944921	-0.004666666666671517
736.5034767056397	0.06266666666667636
736.0943282235205	0.03733333333332363
735.6851612468854	0.0339999999999903
735.2759757744748	-0.004333333333343035
734.8667718050416	0.01800000000000485
734.4575493373283	0.02699999999999515
734.0483083700792	0.020666666666656966
733.6390489020412	-0.0560000000000097
733.2297709319565	0.06066666666665697
732.8204744585761	0.08466666666667151
732.4111594806445	0.035333333333328484
732.0018259969019	0.15199999999999514
731.5924740060949	0.021666666666666667
731.1831035069702	0.09266666666667636
730.7737144982744	0.06633333333333818
730.3643069787478	0.0489999999999903
729.9548809471348	-0.015333333333328482
729.5454364021842	0.04133333333333818
729.1359733426384	0.06333333333333334
728.7264917672396	0.06966666666667151
728.3169916747303	0.08433333333334303
727.9074730638592	0.11533333333332849
727.4979359333709	0.034333333333343034
727.0883802820032	0.11300000000000485
726.6788061085008	0.09966666666667151
726.2692134116146	0.09333333333333334
725.8596021900805	0.024333333333343036
725.449972442645	0.1436666666666618
725.0403241680441	0.1239999999999903
724.630657365033	0.10833333333333334
724.2209720323476	0.13466666666667151
723.8112681687303	0.07533333333332848
723.4015457729232	0.11300000000000485
722.9918048436731	0.12933333333334304
722.5820453797202	0.13966666666667152
722.1722673798067	0.11133333333333818
721.7624708426707	0.08833333333333333
721.3526557670632	0.012666666666676369
720.94282215172	-0.0060000000000097016
720.5329699953855	0.003666666666661816
720.1230992967957	0.035
719.7132100547013	-0.02666666666666667
719.3033022678385	0.10766666666667636
718.8933759349494	0.07
718.4834310547741	0.11733333333332363
718.0734676260573	0.10533333333332848
717.6634856475368	0.1389999999999903
717.2534851179572	0.12933333333334304
716.8434660360522	0.12800000000000486
716.4334284005727	0.1210000000000097
716.0233722102523	0.13166666666666665
715.6132974638334	0.08800000000000485
715.2032041600562	0.17566666666665698
714.7930922976565	0.20833333333333334
714.3829618753853	0.0489999999999903
713.9728128919741	0.04833333333333333
713.562645346165	0.043333333333333335
713.1524592366941	0.13533333333332848
712.7422545623102	0.06066666666665697
712.3320313217469	0.08666666666666667
711.9217895137442	0.1189999999999903
711.5115291370382	-0.019333333333343035
711.1012501903754	0.06533333333332848
710.6909526724916	-0.02666666666666667
710.2806365821249	0.025666666666656967
709.870301918011	0.0610000000000097
709.4599486788967	0.028999999999990297
709.0495768635155	0.12
708.6391864706077	0.12933333333334304
708.228777498909	0.10233333333332363
707.8183499471618	0.06199999999999515
707.4079038141018	0.07933333333334304
706.9974390984672	0.1339999999999903
706.5869557989937	0.11066666666665696
706.1764539144258	0.11266666666667637
705.7659334434971	0.20300000000000484
705.3553943849456	0.1589999999999903
704.9448367375052	0.2110000000000097
704.5342604999221	0.1296666666666715
704.123665670926	0.13199999999999515
703.7130522492591	0.11466666666667152
703.3024202336507	0.12666666666666668
702.8917696228474	0.030333333333328483
702.4811004155808	0.023333333333333334
702.0704126105888	0.005
701.6597062066053	0.023666666666661815
701.2489812023722	-0.011666666666666667
700.8382375966235	0.07800000000000486
700.4274753880926	0.004666666666671517
700.0166945755177	0.08366666666666181
699.6058951576366	0.16833333333333333
699.1950771331854	0.016333333333338185
698.7842405008996	0.07466666666667152
698.3733852595066	0.14800000000000485
697.962511407755	0.1339999999999903
697.5516189443744	0.06
697.1407078681002	0.12633333333333818
696.7297781776643	0.02300000000000485
696.3188298718089	0.085
695.9078629492653	-0.024333333333343036
695.4968774087696	0.1
695.0858732490532	0.11166666666666666
694.6748504688518	0.050333333333328484
694.2638090669034	0.04533333333332848
693.8527490419395	-0.013000000000004851
693.4416703926984	-0.03666666666666667
693.0305731179045	0.02266666666667637
692.6194572163027	-0.01699999999999515
692.2083226866246	0.07666666666666666
691.7971695276012	0.06733333333332363
691.3859977379644	0.10166666666666667
690.9748073164542	0.058666666666661815
690.563598261802	0.20199999999999516
690.1523705727373	0.13966666666667152
689.7411242479958	0.11333333333333333
689.3298592863133	0.08699999999999515
688.9185756864193	0.15833333333333333
688.5072734470516	0.0810000000000097
688.095952566933	0.20933333333334303
687.6846130448081	0.16433333333334305
687.273254879404	0.20233333333332362
686.8618780694522	0.18066666666665696
686.4504826136841	0.2060000000000097
686.0390685108379	0.09866666666666181
685.6276357596405	0.10966666666667152
685.216184358828	0.10233333333332363
684.804714307125	0.09366666666666182
684.3932256032718	0.16666666666666666
683.981718245998	0.18733333333332364
683.5701922340304	0.1360000000000097
683.1586475661029	0.18633333333333818
682.747084240951	0.1310000000000097
682.3355022573022	0.02800000000000485
681.9239016138878	0.09833333333333333
681.5122823094371	0.04833333333333333
681.100644342686	0.045
680.6889877123616	0.06466666666667152
680.2773124171954	0.1489999999999903
679.8656184559145	0.125
679.4539058272569	0.12033333333332848
679.0421745299477	0.04766666666667637
678.6304245627183	0.035
678.2186559242936	0.051333333333338185
677.8068686134138	0.08333333333333333
677.395062628804	0.10233333333332363
676.9832379691933	0.06066666666665697
676.5713946333069	0.13300000000000486
676.1595326198826	0.09666666666666666
675.7476519276477	0.06366666666666182
675.3357525553292	0.11933333333334303
674.9238345016566	0.0539999999999903
674.5118977653547	0.035333333333328484
674.0999423451638	0.2196666666666715
673.6879682398022	0.1810000000000097
673.2759754480059	0.20699999999999516
672.8639639684933	0.15933333333334304
672.4519338000044	0.20199999999999516
672.0398849412645	0.13800000000000484
671.6278173909984	0.06233333333332363
671.2157311479332	0.16
670.8036262108026	0.0639999999999903
670.3915025783316	0.12199999999999515
669.9793602492473	0.12199999999999515
669.5671992222748	0.09766666666667637
669.1550194961476	0.11433333333334303
668.7428210695929	0.10833333333333334
668.3306039413335	0.014666666666671517
667.9183681100944	0.04666666666666667
667.5061135746137	0.12333333333333334
667.0938403336097	0.11266666666667637
666.6815483858096	0.16966666666667152
666.2692377299405	0.23966666666667152
665.856908364734	0.15699999999999514
665.4445602889106	0.14966666666667153
665.0321935011997	0.23199999999999515
664.6198080003242	0.13033333333332847
664.2074037850176	0.1839999999999903
663.7949808539984	0.13766666666667637
663.3825392059981	0.17966666666667153
662.9700788397353	0.20699999999999516
662.5575997539434	0.19366666666666182
662.1451019473432	0.20699999999999516
661.732585418664	0.1889999999999903
661.3200501666242	0.08133333333333818
660.9074961899598	0.215
660.494923487387	0.1739999999999903
660.0823320576351	0.18066666666665696
659.6697218994246	0.18166666666666667
659.2570930114873	0.10833333333333334
658.8444453925414	0.16233333333332364
658.4317790413164	0.22166666666666668
658.0190939565284	0.1739999999999903
657.6063901369134	0.0660000000000097
657.1936675811899	0.049333333333343034
656.7809262880805	0.085
656.3681662563105	0.13300000000000486
655.9553874846001	0.02800000000000485
655.5425899716812	0.18699999999999514
655.1297737162741	0.11133333333333818
654.7169387170998	0.010666666666656966
654.3040849728786	0.0439999999999903
653.8912124823422	0.05966666666667152
653.4783212442112	0.07300000000000485
653.0654112572063	0.043000000000004854
652.6524825200479	0.08966666666667152
652.2395350314655	0.1413333333333382
651.8265687901776	0.12833333333333333
651.4135837949091	0.13300000000000486
651.0005800443785	0.2089999999999903
650.5875575373129	0.20166666666666666
650.1745162724332	0.15199999999999514
649.7614562484596	0.18233333333332363
649.348377464113	0.1736666666666618
648.9352799181206	0.16533333333332847
648.5221636092008	0.17633333333333817
648.1090285360741	0.09533333333332848
647.6958746974614	0.18300000000000485
647.2827020920896	0.13233333333332364
646.8695107186775	0.12699999999999514
646.4563005759431	0.11966666666667151
646.0430716626075	0.1089999999999903
645.6298239773976	0.07833333333333334
645.2165575190319	0.10800000000000486
644.8032722862267	0.1389999999999903
644.3899682777028	0.20699999999999516
643.9766454921893	0.13166666666666665
643.5633039283982	0.12699999999999514
643.1499435850546	0.22199999999999515
642.7365644608705	0.1713333333333382
642.3231665545771	0.13566666666665697
641.9097498648889	0.11
641.4963143905242	0.1489999999999903
641.0828601302013	0.18466666666667153
640.6693870826476	0.08933333333334303
640.2558952465771	0.1736666666666618
639.8423846207105	0.23699999999999516
639.4288552037599	0.20766666666667638
639.0153069944565	0.18199999999999514
638.6017399915146	0.17166666666666666
638.1881541936483	0.11733333333332363
637.7745495995827	0.0539999999999903
637.3609262080296	0.14699999999999516
636.9472840177161	0.04833333333333333
636.5336230273545	0.09933333333334303
636.119943235665	0.14300000000000485
635.7062446413621	0.20966666666667153
635.2925272431705	0.22533333333332847
634.8787910398067	0.18300000000000485
634.4650360299848	0.19
634.0512622124211	0.245
633.6374695858384	0.1660000000000097
633.2236581489551	0.20033333333332848
632.8098279004832	0.20633333333333817
632.3959788391412	0.15600000000000971
631.9821109636476	0.17199999999999516
631.5682242727231	0.0560000000000097
631.1543187650774	0.15433333333334304
630.7403944394289	0.07166666666666667
630.3264512944984	0.10566666666665697
629.9124893289999	0.0839999999999903
629.4985085416498	0.14833333333333334
629.08450893116	0.11733333333332363
628.6704904962556	0.21199999999999514
628.2564532356485	0.23066666666665697
627.8423971480548	0.22866666666666183
627.4283222321847	0.264333333333343
627.0142284867629	0.18433333333334304
626.6001159105014	0.20199999999999516
626.1859845021144	0.20633333333333817
625.771834260316	0.1736666666666618
625.3576651838268	0.145
624.9434772713589	0.15
624.5292705216264	0.13199999999999515
624.1150449333433	0.06733333333332363
623.7008005052281	0.12800000000000486
623.2865372359929	0.07100000000000971
622.872255124354	0.07966666666667152
622.457954169021	0.1460000000000097
622.0436343687147	0.1389999999999903
621.629295722145	0.17566666666665698
621.2149382280302	0.10366666666666181
620.8005618850757	0.08833333333333333
620.3861666920067	0.1239999999999903
619.9717526475306	0.15733333333332364
619.5573197503596	0.08699999999999515
619.1428679992077	0.07
618.7283973927935	0.12866666666666182
618.3139079298264	0.2439999999999903
617.8993996090189	0.15233333333332363
617.4848724290849	0.2386666666666618
617.0703263887341	0.15366666666666182
616.6557614866873	0.28300000000000486
616.2411777216521	0.24933333333334304
615.8265750923404	0.26
615.411953597462	0.24033333333332849
614.9973132357354	0.2336666666666618
614.5826540058705	0.225
614.1679759065792	0.25733333333332364
613.7532789365712	0.25466666666667154
613.3385630945629	0.2586666666666618
612.9238283792641	0.23233333333332362
612.5090747893845	0.20933333333334303
612.0943023236341	0.24433333333334303
611.6795109807312	0.19966666666667152
611.2647007593813	0.18433333333334304
610.8498716582986	0.15933333333334304
610.4350236761907	0.2336666666666618
610.0201568117717	0.1853333333333285
609.6052710637535	0.2563333333333382
609.1903664308418	0.20833333333333334
608.7754429117483	0.245
608.3605005051894	0.2776666666666764
607.9455392098686	0.21133333333333817
607.5305590245018	0.22566666666665697
607.1155599477905	0.28300000000000486
606.700541978453	0.23966666666667152
606.2855051151969	0.18833333333333332
605.8704493567299	0.15833333333333333
605.4553747017618	0.1839999999999903
605.0402811490067	0.2489999999999903
604.6251686971679	0.16
604.2100373449596	0.21333333333333335
603.794887091085	0.19866666666666183
603.3797179342605	0.23533333333332848
602.9645298731892	0.23699999999999516
602.5493229065834	0.2110000000000097
602.1340970331482	0.21800000000000486
601.7188522515959	0.2
601.3035885606339	0.20166666666666666
600.8883059589721	0.1910000000000097
600.4730044453094	0.18633333333333818
600.0576840183686	0.19766666666667637
599.6423446768466	0.08166666666666667
599.2269864194574	0.16066666666665697
598.8116092449044	0.16333333333333333
598.3962131518952	0.15166666666666667
597.9807981391417	0.21066666666665695
597.5653642053495	0.28066666666665696
597.1499113492239	0.19199999999999515
596.7344395694705	0.2103333333333285
596.3189488648012	0.11766666666667637
595.9034392339214	0.135
595.4879106755388	0.1310000000000097
595.0723631883525	0.1253333333333285
594.6567967710808	0.05266666666667637
594.2412114224227	0.17533333333332848
593.825607141088	0.07633333333333818
593.4099839257777	0.0239999999999903
592.9943417752039	0.0310000000000097
592.57868068807	0.1489999999999903
592.1630006630813	0.07333333333333333
591.7473016989411	0.1939999999999903
591.3315837943614	0.155
590.9158469480456	0.13933333333334302
590.5000911586968	0.16800000000000484
590.0843164250163	0.17466666666667152
589.6685227457202	0.07333333333333333
589.2527101195077	0.13833333333333334
588.8368785450818	0.12199999999999515
588.4210280211462	0.11533333333332849
588.0051585464104	0.15766666666667636
587.5892701195799	0.12933333333334304
587.1733627393536	0.10133333333333819
586.7574364044372	0.03
586.341491113538	0.10166666666666667
585.9255268653596	0.22133333333333818
585.5095436586031	0.1436666666666618
585.0935414919694	0.12266666666667637
584.6775203641728	0.15133333333333818
584.26148027391	0.18666666666666668
583.8454212198844	0.14066666666665698
583.4293432007971	0.2
583.0132462153579	0.1589999999999903
582.5971302622678	0.17633333333333817
582.1809953402259	0.10266666666667637
581.7648414479354	0.1663333333333382
581.3486685841062	0.16199999999999515
580.9324767474351	0.17466666666667152
580.5162659366252	0.09533333333332848
580.1000361503757	0.05266666666667637
579.6837873873984	0.10666666666666667
579.267519646388	0.0789999999999903
578.8512329260478	0.05300000000000485
578.4349272250832	0.07966666666667152
578.0186025421867	0.17166666666666666
577.6022588760703	0.22866666666666183
577.1858962254329	0.11833333333333333
576.7695145889734	0.10266666666667637
576.3531139653909	0.115
575.9366943533951	0.08766666666667637
575.5202557516828	0.05199999999999515
575.1037981589529	0.14233333333332363
574.6873215739046	0.1546666666666715
574.2708259952475	0.09466666666667152
573.854311421674	0.19199999999999515
573.4377778518897	0.11
573.0212252845891	0.12566666666665696
572.6046537184778	0.1436666666666618
572.1880631522547	0.1539999999999903
571.7714535846209	0.16566666666665697
571.3548250142687	0.12033333333332848
570.9381774399104	0.16733333333332362
570.5215108602383	0.04199999999999515
570.1048252739535	0.0460000000000097
569.6881206797506	0.1460000000000097
569.2713970763372	0.07100000000000971
568.854654462408	0.1360000000000097
568.4378928366642	0.1039999999999903
568.0211121978002	0.14833333333333334
567.6043125445195	0.11466666666667152
567.187493875521	0.11633333333333819
566.7706561895014	0.1160000000000097
566.3537994851577	0.15699999999999514
565.9369237611908	0.18733333333332364
565.5200290162996	0.15633333333333818
565.1031152491812	0.2389999999999903
564.6861824585301	0.13533333333332848
564.2692306430516	0.15
563.8522598014383	0.29433333333334305
563.4352699323913	0.1610000000000097
563.0182610345986	0.17800000000000485
562.6012331067724	0.23266666666667637
562.1841861476007	0.15233333333332363
561.7671201557823	0.13233333333332364
561.3500351300121	0.15
560.9329310689911	0.2439999999999903
560.515807971416	0.14199999999999516
560.0986658359838	0.17766666666667638
559.6815046613867	0.19966666666667152
559.2643244463217	0.12433333333334304
558.847125189492	0.20533333333332848
558.4299068895878	0.051000000000009704
558.012669545306	0.13733333333332362
557.5954131553412	0.18066666666665696
557.1781377183946	0.1410000000000097
556.7608432331607	0.14
556.343529698332	0.18666666666666668
555.926197112601	0.19533333333332847
555.5088454746709	0.2036666666666618
555.0914747832342	0.20466666666667152
554.6740850369855	0.2289999999999903
554.2566762346152	0.27933333333334304
553.8392483748285	0.25533333333332847
553.4218014563138	0.18133333333333818
553.0043354777655	0.22800000000000484
552.5868504378763	0.17533333333332848
552.1693463353471	0.2210000000000097
551.7518231688704	0.15133333333333818
551.3342809371366	0.2010000000000097
550.91671963884	0.16366666666666183
550.49913927268	0.1386666666666618
550.0815398373467	0.22800000000000484
549.6639213315347	0.225
549.2462837539342	0.17733333333332363
548.8286271032442	0.17466666666667152
548.4109513781551	0.18133333333333818
547.9932565773614	0.19533333333332847
547.5755426995535	0.21766666666667636
547.1578097434281	0.3253333333333285
546.7400577076776	0.18466666666667153
546.3222865909923	0.09833333333333333
545.9044963920649	0.19766666666667637
545.4866871095918	0.22833333333333333
545.0688587422615	0.3296666666666715
544.6510112887704	0.2676666666666764
544.2331447478026	0.22800000000000484
543.8152591180612	0.33566666666665695
543.39735439823	0.3536666666666618
542.979430587006	0.31
542.5614876830728	0.37733333333332364
542.1435256851336	0.3789999999999903
541.7255445918723	0.39733333333332366
541.3075444019836	0.30033333333332846
540.8895251141511	0.379333333333343
540.471486727076	0.38800000000000484
540.0534292394465	0.4033333333333333
539.6353526499506	0.4746666666666715
539.217256957283	0.45199999999999513
538.7991421601253	0.45
538.3810082571806	0.47566666666665697
537.962855247133	0.4203333333333285
537.5446831286725	0.45366666666666183
537.1264919004875	0.4526666666666764
536.7082815612724	0.4786666666666618
536.2900521097155	0.4073333333333236
535.871803544509	0.5160000000000097
535.4535358643325	0.4960000000000097
535.0352490678893	0.4889999999999903
534.6169431538631	0.46199999999999514
534.19861812094	0.5403333333333284
533.78027396781	0.4823333333333236
533.361910693168	0.5453333333333285
532.9435282956977	0.5916666666666667
532.5251267740915	0.6436666666666618
532.1067061270311	0.7946666666666715
531.6882663532132	0.8136666666666618
531.2698074513237	0.8083333333333333
530.8513294200487	0.7496666666666715
530.4328322580762	0.7173333333333236
530.0143159641009	0.7616666666666667
529.5957805368043	0.7936666666666619
529.1772259748768	0.8086666666666619
528.7586522770022	0.7553333333333285
528.3400594418729	0.7730000000000049
527.9214474681769	0.8360000000000097
527.5028163546002	0.9210000000000097
527.0841660998245	1.0336666666666618
526.6654967025466	1.0660000000000096
526.2468081614481	1.0689999999999904
525.8281004752192	1.1566666666666667
525.4093736425393	1.2380000000000049
524.9906276621032	1.2796666666666716
524.5718625325945	1.3203333333333285
524.1530782526993	1.394333333333343
523.7342748211013	1.3889999999999902
523.3154522364929	1.4939999999999902
522.896610497558	1.6503333333333285
522.4777496029803	1.6826666666666763
522.0588695514436	1.8163333333333382
521.6399703416404	2.0083333333333333
521.2210519722521	2.04899999999999
520.8021144419671	2.2353333333333283
520.3831577494668	2.375666666666657
519.9641818934351	2.661333333333338
519.5451868725623	2.8216666666666668
519.1261726855342	3.1266666666666665
518.7071393310304	3.4780000000000046
518.2880868077347	3.7460000000000098
517.8690151143393	4.06600000000001
517.449924249526	4.5616666666666665
517.0308142119765	5.013666666666662
516.6116850003721	5.609333333333343
516.1925366134055	6.2810000000000095
515.7733690497562	7.06
515.3541823081079	7.881999999999995
514.934976387142	8.901333333333339
514.5157512855491	9.994333333333342
514.0965070020062	11.118333333333334
513.6772435352017	12.36
513.2579608838126	13.616666666666667
512.8386590465294	14.952666666666676
512.4193380220314	16.068000000000005
511.99999780900464	17.085333333333327
511.580638406122	17.793666666666663
511.1612598120781	18.195333333333327
510.7418620255524	18.36100000000001
510.3224450452243	17.927333333333323
509.9030088697755	17.440333333333328
509.48355349789404	16.185666666666656
509.06407892825723	15.048333333333334
508.6445851595488	13.760333333333328
508.22507219044604	12.735333333333328
507.8055400196393	11.730333333333329
507.3859886458058	10.325333333333328
506.96641806762716	9.328333333333333
506.5468282837806	8.386999999999995
506.12721929295435	7.576333333333338
505.7075910938277	6.682666666666677
505.2879436850803	6.076000000000009
504.8682770653892	5.3439999999999905
504.4485912334448	5.075333333333329
504.02888618792	4.594666666666671
503.6091619274987	4.142333333333323
503.1894184508558	3.84
502.76965575668174	3.4646666666666714
502.3498738436494	3.229333333333343
501.93007271044036	3.048000000000005
501.51025235573195	2.832666666666676
501.09041277821007	2.631333333333338
500.67055397655207	2.4633333333333334
500.25067594943516	2.305
499.8307786955409	2.1546666666666714
499.41086221354453	2.008000000000005
498.9909265021319	2.0239999999999903
498.5709715599803	1.951999999999995
498.15099738576487	1.7126666666666763
497.73100397816495	1.7753333333333285
497.31099133586446	1.5596666666666714
496.89095945753843	1.4983333333333333
496.4709083418663	1.5119999999999951
496.050837987521	1.414333333333343
495.6307483931907	1.2313333333333383
495.21063955754823	1.2230000000000047
494.790511479271	1.306999999999995
494.37036415703403	1.1626666666666763
493.95019758952327	1.2466666666666666
493.53001177541165	1.19
493.1098067133765	1.1916666666666667
492.68958240209287	0.9510000000000097
492.26933884024237	1.1296666666666715
491.8490760265023	1.0646666666666715
491.42879395954776	0.9789999999999903
491.0084926380517	0.8846666666666715
490.5881720607	0.8296666666666715
490.1678322261635	0.8753333333333285
489.7474731331217	0.7619999999999951
489.32709478024304	0.7483333333333333
488.9066971662135	0.795666666666657
488.48628028970614	0.7153333333333285
488.0658441493982	0.7786666666666618
487.6453887439581	0.8216666666666667
487.224914072072	0.8556666666666569
486.8044201324106	0.675666666666657
486.38390692364896	0.729333333333343
485.96337444446226	0.664333333333343
485.5428226935299	0.7269999999999951
485.1222516695248	0.6746666666666715
484.7016613711199	0.5866666666666667
484.28105179699037	0.6616666666666666
483.86042294581335	0.6096666666666715
483.43977481626627	0.5403333333333284
483.01910740701766	0.5153333333333285
482.59842071674257	0.5373333333333237
482.1777147441205	0.48933333333334306
481.75698948782224	0.5113333333333382
481.33624494652287	0.5453333333333285
480.91548111889534	0.5496666666666715
480.4946980036104	0.5153333333333285
480.0738955993496	0.5766666666666667
479.65307390478165	0.585
479.2322329185816	0.4823333333333236
478.81137263941804	0.49733333333332364
478.3904930659726	0.454333333333343
477.9695941969139	0.39666666666666667
477.5486760309148	0.4936666666666618
477.127738566644	0.4660000000000097
476.70678180278304	0.43166666666666664
476.28580573800053	0.5486666666666619
475.86481037096945	0.5253333333333284
475.44379570035835	0.6123333333333236
475.0227617248467	0.5460000000000097
474.6017084431009	0.5460000000000097
474.1806358537961	0.5189999999999902
473.75954395560086	0.47
473.3384327471903	0.3760000000000097
472.91730222723737	0.42633333333333817
472.4961523944085	0.4066666666666667
472.07498324737657	0.3630000000000049
471.6537947848168	0.2839999999999903
471.2325870053998	0.3086666666666618
470.81135990779217	0.24266666666667636
470.3901134906646	0.3296666666666715
469.9688477526965	0.29833333333333334
469.54756269254995	0.33800000000000485
469.12625830890016	0.3160000000000097
468.7049346004113	0.2696666666666715
468.28359156576283	0.37199999999999517
467.86222920361905	0.37166666666666665
467.4408475126529	0.31233333333332364
467.0194464915286	0.37333333333333335
466.5980261389256	0.2569999999999952
466.176586453506	0.300666666666657
465.75512743394273	0.35566666666665697
465.3336490789022	0.31966666666667154
464.91215138705746	0.35933333333334305
464.490634357077	0.31266666666667636
464.0690979876294	0.26933333333334303
463.647542277379	0.35133333333333816
463.22596722500305	0.33366666666666184
462.80437282916796	0.2363333333333382
462.3827590885402	0.30233333333332363
461.96112600178395	0.37033333333332846
461.5394735675766	0.24266666666667636
461.1178017845845	0.26733333333332365
460.69611065147194	0.27800000000000485
460.2744001669097	0.19966666666667152
459.8526703295598	0.20800000000000485
459.4309211380996	0.295666666666657
459.00915259119125	0.29333333333333333
458.58736468750317	0.25166666666666665
458.1655574256997	0.2519999999999952
457.74373080445605	0.1413333333333382
457.321884822432	0.20199999999999516
456.9000194782984	0.21333333333333335
456.47813477071736	0.22433333333334304
456.0562306983639	0.29066666666665697
455.634307259898	0.21566666666665696
455.2123644539904	0.34300000000000486
454.7904022793011	0.28433333333334304
454.36842073450293	0.10666666666666667
453.9464198182602	0.2013333333333382
453.5243995292416	0.18833333333333332
453.1023598661026	0.21233333333332363
452.6803008275226	0.23533333333332848
452.2582224121617	0.18233333333332363
451.83612461868404	0.18633333333333818
451.41400744575174	0.13800000000000484
450.9918708920399	0.1860000000000097
450.56971495620627	0.2560000000000097
450.1475396369195	0.12733333333332364
449.72534493283945	0.16
449.3031308426391	0.18833333333333332
448.88089736497835	0.15300000000000485
448.4586444985215	0.11566666666665697
448.03637224192846	0.28833333333333333
447.6140805938743	0.24266666666667636
447.19176955301896	0.17699999999999516
446.7694391180224	0.3036666666666618
446.347089287551	0.40433333333334304
445.9247200602713	0.275
445.50233143484525	0.19366666666666182
445.079923409935	0.23
444.6574959842027	0.17
444.2350491563169	0.17
443.8125829249397	0.19733333333332362
443.390097288731	0.20933333333334303
442.9675922463529	0.17633333333333817
442.54506779647625	0.18333333333333332
442.12252393775657	0.30733333333332363
441.69996066885807	0.15666666666666668
441.277377988443	0.15199999999999514
440.85477589517325	0.21866666666666182
440.43215438771324	0.30333333333333334
440.00951346472505	0.2389999999999903
439.58685312487074	0.24300000000000485
439.16417336680587	0.28566666666665697
438.7414741892034	0.2789999999999903
438.31875559071676	0.2339999999999903
437.8960175700124	0.3036666666666618
437.4732601257437	0.30033333333332846
437.05048325658146	0.2586666666666618
436.62768696118343	0.24733333333332364
436.2048712382074	0.26800000000000485
435.7820360863154	0.28066666666665696
435.3591815041739	0.24566666666665696
434.9363074904384	0.345
434.51341404377115	0.26733333333332365
434.09050116282765	0.2603333333333285
433.6675688462765	0.29433333333334305
433.24461709277546	0.2519999999999952
432.8216459009802	0.1710000000000097
432.3986552695505	0.3060000000000097
431.9756451971529	0.2860000000000097
431.55261568244293	0.29766666666667635
431.12956672408274	0.29833333333333334
430.70649832072354	0.315
430.28341047103396	0.3289999999999903
429.8603031736717	0.2713333333333382
429.43717642729246	0.30766666666667636
429.0140302305539	0.2103333333333285
428.5908645821203	0.23266666666667637
428.1676794806494	0.2539999999999903
427.74447492479686	0.2663333333333382
427.3212509132182	0.30333333333333334
426.89800744458205	0.2986666666666618
426.4747445175375	0.2966666666666667
426.05146213074664	0.3496666666666715
425.6281602828629	0.415
425.20483897255264	0.3680000000000048
424.7814981984672	0.31666666666666665
424.3581379592665	0.30233333333332363
423.9347582536018	0.3516666666666667
423.5113590801394	0.295666666666657
423.0879404375329	0.28199999999999514
422.66450232444	0.3113333333333382
422.24104473951405	0.3466666666666667
421.8175676814172	0.3326666666666764
421.39407114880504	0.2986666666666618
420.97055514033093	0.28699999999999515
420.54701965465495	0.23266666666667637
420.1234646904282	0.30333333333333334
419.6998902463128	0.3560000000000097
419.2762963209644	0.21800000000000486
418.8526829130364	0.29133333333333816
418.4290500211822	0.24933333333334304
418.00539764406386	0.25966666666667154
417.5817257803349	0.37233333333332364
417.15803442864865	0.31966666666667154
416.7343235876586	0.24933333333334304
416.3105932560246	0.2619999999999951
415.8868434324023	0.22166666666666668
415.4630741154451	0.24733333333332364
415.03928530380216	0.2013333333333382
414.61547699613976	0.29199999999999515
414.1916491911049	0.21166666666666667
413.767801887351	0.22066666666665696
413.34393508353367	0.3423333333333236
412.9200487783128	0.3496666666666715
412.49614297033526	0.30833333333333335
412.0722176582611	0.30199999999999516
411.64827284073493	0.3853333333333285
411.22430851642116	0.31199999999999517
410.80032468396655	0.3169999999999952
410.376321342029	0.30699999999999517
409.9522984892553	0.23199999999999515
409.5282561243077	0.23699999999999516
409.1041942458351	0.37
408.6801128524889	0.2260000000000097
408.2560119429202	0.23466666666667152
407.83189151578915	0.33800000000000485
407.40775156974246	0.2460000000000097
406.9835921034358	0.30333333333333334
406.5594131155161	0.21233333333332363
406.1352146046411	0.2510000000000097
405.7109965694642	0.20033333333332848
405.28675900863453	0.21933333333334304
404.86250192079893	0.2619999999999951
404.43822530461745	0.32300000000000484
404.01392915874123	0.22533333333332847
403.5896134818172	0.27300000000000485
403.1652782724945	0.2803333333333285
402.740923529433	0.265
402.31654925127964	0.35066666666665697
401.8921554366857	0.315666666666657
401.4677420843024	0.3376666666666764
401.0433091927745	0.39
400.61885676076406	0.4033333333333333
400.1943847869137	0.3089999999999903
399.7698932698746	0.40066666666665696
399.345382208296	0.3660000000000097
398.9208516008334	0.30833333333333335
398.4963014461336	0.35633333333333816
398.0717317428458	0.3630000000000049
397.647142489617	0.3303333333333285
397.2225336851048	0.2813333333333382
396.797905327954	0.3110000000000097
396.3732574168138	0.3473333333333236
395.9485899503309	0.24266666666667636
395.52390292716103	0.32733333333332365
395.0991963459511	0.295666666666657
394.6744702053458	0.28800000000000486
394.2497245039943	0.2973333333333236
393.8249592405521	0.2786666666666618
393.40017441366183	0.3163333333333382
392.9753700219747	0.25233333333332364
392.5505460641355	0.25266666666667636
392.1257025387955	0.32300000000000484
391.70083944460373	0.27666666666666667
391.2759567802049	0.25
390.8510545442461	0.25166666666666665
390.42613273537836	0.3136666666666618
390.00119135225094	0.30133333333333817
389.57623039350636	0.3610000000000097
389.1512498577893	0.2653333333333285
388.72624974375765	0.33566666666665695
388.3012300500495	0.360666666666657
387.8761907753162	0.3263333333333382
387.45113191820036	0.36266666666667635
387.0260534773531	0.32566666666665695
386.60095545141934	0.3686666666666618
386.1758378390437	0.319333333333343
385.7507006388731	0.2813333333333382
385.3255438495567	0.33666666666666667
384.90036746973703	0.2939999999999903
384.47517149806316	0.26933333333334303
384.0499559331755	0.3139999999999903
383.6247207737275	0.285
383.1994660183596	0.19133333333333818
382.77419166571866	0.3016666666666667
382.3488977144451	0.2639999999999903
381.92358416319234	0.23533333333332848
381.498251010603	0.259333333333343
381.0728982553196	0.26866666666666184
380.6475258959869	0.3263333333333382
380.2221339312475	0.3030000000000049
379.7967223597549	0.26066666666665694
379.37129118014496	0.35
378.94584039106695	0.2763333333333382
378.5203699911569	0.34199999999999514
378.09487997907036	0.2603333333333285
377.6693703534434	0.3253333333333285
377.243841112923	0.2289999999999903
376.8182922561495	0.20466666666667152
376.3927237817721	0.25233333333332364
375.96713568843103	0.30266666666667635
375.541527974769	0.25666666666666665
375.11590063942424	0.2796666666666715
374.6902536810523	0.37833333333333335
374.2645870982871	0.3496666666666715
373.8389008897734	0.34
373.41319505415163	0.35800000000000487
372.9874695900686	0.30266666666667635
372.561724496167	0.2786666666666618
372.1359597710851	0.38066666666665694
371.7101754134632	0.4063333333333382
371.2843714219504	0.31766666666667637
370.8585477951872	0.3086666666666618
370.43270453181174	0.3853333333333285
370.00684163046236	0.32699999999999513
369.5809590897924	0.3460000000000097
369.1550569084336	0.3503333333333285
368.7291350850329	0.29199999999999515
368.30319361822427	0.3310000000000097
367.87723250665454	0.3296666666666715
367.4512517489663	0.26733333333332365
367.0252513437956	0.28699999999999515
366.5992312897829	0.4013333333333382
366.17319158557297	0.3303333333333285
365.747132229804	0.4296666666666715
365.32105322111636	0.4676666666666764
364.8949545581462	0.3836666666666618
364.46883623954045	0.3926666666666764
364.0426982639373	0.375
363.616540629975	0.4223333333333236
363.19036333628964	0.3616666666666667
362.7641663815303	0.3396666666666715
362.3379497643287	0.37766666666667636
361.9117134833253	0.309333333333343
361.4854575371626	0.34699999999999515
361.05918192447024	0.3566666666666667
360.6328866439016	0.45733333333332366
360.20657169408406	0.4310000000000097
359.7802370736624	0.3863333333333382
359.3538827812684	0.3546666666666715
358.92750881554895	0.3346666666666715
358.5011151751379	0.4
358.07470185867567	0.335
357.6482688647919	0.2886666666666618
357.22181619213774	0.2986666666666618
356.7953438393429	0.254333333333343
356.3688518050455	0.39666666666666667
355.94234008788163	0.3510000000000097
355.51580868649387	0.35766666666667635
355.0892575995162	0.29300000000000487
354.662686825589	0.32466666666667154
354.2360963633396	0.30199999999999516
353.8094862114171	0.3553333333333285
353.3828563684533	0.3739999999999903
352.95620683308425	0.3560000000000097
352.5295376039439	0.29633333333333817
352.1028486796747	0.3510000000000097
351.67614005890846	0.3283333333333333
351.24941174028345	0.42
350.8226637224314	0.3939999999999903
350.395896003997	0.37266666666667636
349.9691085836077	0.30666666666666664
349.5423014599039	0.3486666666666618
349.11547463151516	0.3713333333333382
348.6886280970863	0.36333333333333334
348.26176185524673	0.4196666666666715
347.8348759046305	0.4526666666666764
347.40797024387143	0.32
346.9810448716122	0.37166666666666665
346.55409978648225	0.37233333333332364
346.12713498711554	0.3403333333333285
345.70015047214383	0.3586666666666618
345.2731462402119	0.44
344.8461222899449	0.4280000000000049
344.41907861998106	0.4360000000000097
343.9920152289479	0.41433333333334305
343.56493211548786	0.42433333333334305
343.1378292782306	0.420666666666657
342.71070671581214	0.39800000000000485
342.2835644268599	0.4160000000000097
341.85640241001437	0.43766666666667636
341.42922066390713	0.39
341.0020191871679	0.33800000000000485
340.5747979784326	0.39800000000000485
340.14755703633097	0.4046666666666715
339.7202963595011	0.39100000000000973
339.2930159465705	0.30699999999999517
338.86571579617737	0.35300000000000487
338.4383959069447	0.38866666666666183
338.0110562775131	0.44666666666666666
337.5836969065141	0.4563333333333382
337.15631779257734	0.5216666666666666
336.72891893433024	0.525666666666657
336.30150033041315	0.5826666666666763
335.8740619794536	0.47300000000000486
335.44660388008316	0.45300000000000484
335.01912603093155	0.36333333333333334
334.59162843063257	0.35433333333334305
334.164111077818	0.3416666666666667
333.7365739711174	0.36133333333333817
333.3090171091582	0.4153333333333285
332.88144049057644	0.4539999999999903
332.4538441140017	0.4386666666666618
332.02622797806356	0.46433333333334303
331.59859208138937	0.4289999999999903
331.1709364226152	0.4239999999999903
330.7432610003664	0.39800000000000485
330.31556581327675	0.3819999999999952
329.8878508599694	0.3889999999999903
329.46011613908246	0.49333333333333335
329.0323616492413	0.374333333333343
328.6045873890776	0.46366666666666184
328.1767933572123	0.48933333333334306
327.7489795522879	0.4960000000000097
327.32114597292536	0.4676666666666764
326.89329261775424	0.43199999999999517
326.4654194853997	0.3860000000000097
326.0375265745001	0.465
325.60961388367843	0.33866666666666184
325.1816814115642	0.45366666666666183
324.75372915678065	0.37266666666667636
324.3257571179637	0.385
323.8977652937386	0.37733333333332364
323.46975368273064	0.4853333333333285
323.0417222835672	0.4646666666666715
322.61367109488435	0.43266666666667636
322.18560011530076	0.4889999999999903
321.75750934344825	0.44666666666666666
321.32939877795206	0.4123333333333236
320.9012684174352	0.44800000000000484
320.47311826053584	0.445
320.0449483058729	0.3473333333333236
319.6167585520736	0.43833333333333335
319.18854899776323	0.4673333333333236
318.76031964157573	0.4116666666666667
318.332070482132	0.46300000000000485
317.9038015180594	0.4033333333333333
317.4755127479788	0.5069999999999951
317.04720417052425	0.3630000000000049
316.6188757843208	0.4413333333333382
316.1905275879894	0.44966666666667154
315.76215958015536	0.49266666666667636
315.3337717594525	0.4913333333333382
314.9053641244995	0.4939999999999903
314.4769366739217	0.379333333333343
314.0484894063444	0.5119999999999951
313.6200223203948	0.5389999999999903
313.19153541469825	0.5439999999999903
312.7630286878778	0.5866666666666667
312.3345021385521	0.5726666666666763
311.9059557653574	0.5033333333333333
311.4773895669123	0.5533333333333333
311.04880354184195	0.5653333333333285
310.6201976887631	0.5683333333333334
310.1915720063139	0.5230000000000049
309.76292649310653	0.5363333333333382
309.33426114777274	0.545666666666657
308.90557596892484	0.5219999999999951
308.4768709551988	0.5633333333333334
308.04814610521345	0.6183333333333333
307.61940141759175	0.5346666666666715
307.1906368909525	0.5630000000000048
306.76185252392514	0.6219999999999951
306.3330483151308	0.5580000000000048
305.9042242631923	0.6423333333333237
305.4753803667263	0.6126666666666764
305.0465166243624	0.6316666666666667
304.61763303472367	0.6169999999999951
304.1887295964288	0.6719999999999952
303.7598063080965	0.6660000000000097
303.3308631683563	0.6526666666666764
302.90190017582705	0.7406666666666569
302.4729173291296	0.5466666666666666
302.04391462688477	0.765
301.61489206771347	0.6646666666666715
301.18584965024104	0.6126666666666764
300.7567873730861	0.6869999999999952
300.3277052348696	0.7210000000000097
299.89860323421027	0.564333333333343
299.4694813697333	0.7569999999999951
299.04033964005737	0.6963333333333381
298.6111780438057	0.8160000000000097
298.18199657959036	0.7926666666666764
297.752795246041	0.7776666666666764
297.3235740417741	0.824333333333343
296.8943329654107	0.7619999999999951
296.46507201556506	0.7803333333333284
296.0357911908646	0.8686666666666618
295.6064904899281	0.8519999999999951
295.17716991137206	0.8330000000000048
294.7478294538131	0.8333333333333334
294.3184691158764	0.810666666666657
293.8890888961806	0.8273333333333236
293.4596887933425	0.8126666666666764
293.03026880597844	0.8133333333333334
292.6008289327138	0.7683333333333333
292.1713691721628	0.7203333333333285
291.7418895229465	0.6630000000000048
291.312389983677	0.7360000000000096
290.8828705529796	0.695
290.4533312294709	0.7436666666666618
290.02377201176955	0.7139999999999903
289.59419289848563	0.719333333333343
289.1645938882465	0.574333333333343
288.7349749796687	0.6439999999999902
288.3053361713668	0.5976666666666763
287.8756774619528	0.5369999999999951
287.44599885005636	0.5369999999999951
287.0163003342854	0.6710000000000097
286.5865819132608	0.6343333333333431
286.1568435855947	0.6383333333333333
285.7270853499102	0.665666666666657
285.2973072048218	0.5460000000000097
284.8675091489438	0.5886666666666618
284.4376911808905	0.5689999999999903
284.00785329928516	0.525
283.577995502742	0.6026666666666763
283.14811778987115	0.5860000000000097
282.7182201592914	0.5653333333333285
282.28830260962343	0.549333333333343
281.85836513947754	0.5216666666666666
281.42840774747015	0.5430000000000048
280.9984304322157	0.5539999999999903
280.5684331923285	0.505
280.13841602642736	0.5810000000000097
279.70837893312665	0.5446666666666715
279.2783219110408	0.645666666666657
278.84824495877757	0.5076666666666764
278.41814807496235	0.5963333333333382
277.98803125820507	0.5776666666666763
277.557894507118	0.6189999999999903
277.12773782031337	0.495
276.6975611964142	0.5019999999999951
276.26736463402625	0.505
275.8371481317683	0.4683333333333333
275.4069116882459	0.4603333333333285
274.97665530208224	0.47066666666665696
274.54637897188735	0.48933333333334306
274.11608269627345	0.47633333333333816
273.68576647384845	0.5310000000000097
273.2554303032375	0.49433333333334306
272.82507418304425	0.4880000000000049
272.39469811188513	0.5189999999999902
271.9643020883682	0.4686666666666618
271.533886111112	0.5019999999999951
271.10345017872675	0.430666666666657
270.67299428982454	0.4810000000000097
270.2425184430133	0.485666666666657
269.8120226369118	0.4089999999999903
269.38150687013	0.4696666666666715
268.9509711412781	0.4596666666666715
268.52041544896383	0.3960000000000097
268.08983979180596	0.36266666666667635
267.65924416841244	0.38233333333332364
267.2286285773954	0.34800000000000486
266.7979930173607	0.3786666666666618
266.36733748692905	0.3913333333333382
265.9366619847041	0.38
265.50596650929805	0.43266666666667636
265.07525105931876	0.32566666666665695
264.64451563338287	0.30533333333332846
264.21376023009816	0.30199999999999516
263.78298484807476	0.2803333333333285
263.3521894859162	0.27199999999999513
262.9213741422434	0.2813333333333382
262.4905388156598	0.25033333333332847
262.0596835047756	0.13199999999999515
261.62880820819856	0.13199999999999515
261.1979129245432	0.14933333333334303
260.7669976524172	0.13533333333332848
260.3360623904265	0.1310000000000097
259.90510713718317	0.018666666666661814
259.47413189128866	0.08966666666667152
259.04313665136385	0.018666666666661814
258.6121214160123	0.09033333333332848
258.1810861838397	0.10966666666667152
257.75003095345176	0.058333333333333334
257.31895572346724	0.0689999999999903
256.8878604924875	0.055
256.45674525912045	0.09733333333332363
256.0256100219717	0.06333333333333334
255.59445477965582	-0.015
255.1632795307762	0.006999999999995149
254.73208427393865	0.09066666666665696
254.300869007751	0.024333333333343036
253.8696337308255	-0.024333333333343036
253.4383784417657	0.10766666666667636
253.0071031391773	0.1239999999999903
252.57580782166383	0.08033333333332848
252.1444924878419	-0.02733333333332363
251.71315713631068	0.10466666666667152
251.28180176568023	0.10333333333333333
250.85042637454976	-0.019666666666671516
250.41903096153368	0.019333333333343035
249.9876155252377	0.045
249.55618006426315	0.03699999999999515
249.12472457721364	0.026333333333338184
248.69324906270137	-0.002333333333323632
248.26175351933205	-0.04800000000000485
247.83023794570707	0.0439999999999903
247.3987023404278	0.005333333333328483
246.96714670210864	0.033666666666661814
246.53557102935096	-0.0030000000000048508
246.10397532076047	0.010333333333328483
245.67235957493423	-0.05699999999999515
245.24072379048877	-0.027666666666676366
244.8090679660212	-0.05733333333332363
244.37739210013714	-0.019333333333343035
243.94569619143803	0.06366666666666182
243.51398023853605	0.01800000000000485
243.0822442400283	0.02
242.65048819452264	0.05
242.2187121006139	0.0939999999999903
241.78691595691873	-0.020666666666656966
241.35509976203193	0.01199999999999515
240.9232635145614	-0.06866666666666181
240.49140721310636	-0.019666666666671516
240.059530856266	0.051666666666666666
239.62763444265474	-0.03300000000000485
239.1957179708696	0.0889999999999903
238.76378143951197	0.03233333333332363
238.33182484718105	0.05533333333332848
237.89984819248693	-0.0016666666666666668
237.46785147403094	0.030666666666656964
237.03583469041013	-0.0489999999999903
236.6037978402259	-0.06866666666666181
236.1717409220883	-0.06199999999999515
235.7396639345922	-0.023333333333333334
235.30756687634332	0.006333333333338184
234.87544974593433	-0.02
234.44331254197968	0.07066666666665697
234.01115526307206	0.03766666666667637
233.57897790781496	0.009666666666671517
233.1467804748055	0.0189999999999903
232.7145629626515	0.002666666666676368
232.28232536995006	0.025666666666656967
231.8500676953025	0.011333333333338184
231.41778993730375	0.09666666666666666
230.98549209456385	0.02733333333332363
230.55317416567763	0.01199999999999515
230.12083614924651	0.026000000000009703
229.68847804386536	0.02266666666667637
229.2560998481399	0.034333333333343034
228.82370156066932	-0.01199999999999515
228.39128318005285	0.00800000000000485
227.95884470488318	-0.095
227.5263861337704	0.0010000000000097012
227.09390746530931	-0.06333333333333334
226.66140869809703	-0.021000000000009702
226.22888983073057	-0.20266666666667638
225.79635086181347	-0.11766666666667637
225.36379178994494	0.007333333333323632
224.93121261371985	-0.08666666666666667
224.4986133317331	0.06433333333334304
224.06599394259257	0.1210000000000097
223.63335444489314	-0.05266666666667637
223.20069483722963	-0.06866666666666181
222.76801511819698	0.04199999999999515
222.33531528640088	-0.03333333333333333
221.9025953404362	0.0439999999999903
221.4698552788978	-0.06800000000000485
221.0370951003849	-0.1039999999999903
220.6043148034924	-0.026000000000009703
220.17151438682168	-0.0789999999999903
219.73869384896756	-0.07166666666666667
219.30585318852715	-0.04833333333333333
218.87299240409308	-0.14266666666667638
218.440111494269	0.011333333333338184
218.0072104576475	0.009333333333343035
217.5742892928257	-0.04733333333332363
217.1413479983941	0.05699999999999515
216.70838657295846	0.05966666666667152
216.27540501510927	-0.06566666666665696
215.8424033234436	0.03
215.40938149655196	0.028333333333333332
214.97633953303793	0.024333333333343036
214.5432774314942	-0.021666666666666667
214.11019519051567	-0.03933333333334303
213.67709280869065	-0.0489999999999903
213.24397028462707	-0.024333333333343036
212.8108276169111	-0.020666666666656966
212.37766480413984	-0.051666666666666666
211.9444818449016	-0.042666666666676366
211.51127873780212	0.042666666666676366
211.0780554814319	-0.015666666666656965
210.64481207438155	-0.07666666666666666
210.21154851524156	0.06466666666667152
209.77826480261763	0.025333333333328482
209.34496093509603	0.014333333333343034
208.91163691127156	0.025
208.47829272973476	0.04133333333333818
208.0449283890849	0.05366666666666182
207.6115438879125	-0.003666666666661816
207.17813922481238	0.058333333333333334
206.74471439836861	0.15266666666667636
206.31126940718693	0.051666666666666666
205.87780424985567	0.15333333333333332
