768.7678709118609	0.07333333333333333
768.3601795435875	0.12
767.9524697795084	0.24333333333333335
767.5447416183789	0.19766666666667637
767.1369950589522	0.2839999999999903
766.7292300999793	0.1710000000000097
766.321446740222	0.15266666666667636
765.9136449784291	0.11333333333333333
765.5058248133583	0.115
765.0979862437583	0.059333333333343036
764.6901292683908	0.006999999999995149
764.2822538860049	0.10566666666665697
763.8743600953579	0.07966666666667152
763.4664478951966	0.0003333333333284827
763.0585172842827	0.07166666666666667
762.6505682613673	0.013666666666661815
762.2426008252036	0.14466666666667152
761.8346149745404	0.1460000000000097
761.4266107081372	0.14533333333332848
761.0185880247452	0.11566666666665697
760.6105469231176	0.10300000000000485
760.202487402003	0.115
759.7944094601592	0.105
759.3863130963391	0.1039999999999903
758.9781983092939	0.09466666666667152
758.5700650977723	0.10133333333333819
758.1619134605319	0.14699999999999516
757.7537433963257	0.014333333333343034
757.3455549039006	0.13966666666667152
756.9373479820074	0.05366666666666182
756.529122629406	0.1089999999999903
756.1208788448427	0.09233333333332364
755.7126166270709	0.13933333333334302
755.3043359748374	0.12566666666665696
754.8960368869017	0.11
754.4877193620104	0.05466666666667152
754.0793833989146	0.15433333333334304
753.671028996363	0.16666666666666666
753.2626561531134	0.09266666666667636
752.8542648679122	0.11466666666667152
752.4458551395104	0.07366666666666181
752.0374269666613	0.09266666666667636
751.6289803481072	0.06800000000000485
751.2205152826077	0.050333333333328484
750.8120317689096	0.16266666666667637
750.4035298057637	0.059333333333343036
749.9950093919146	0.06733333333332363
749.586470526122	0.06133333333333819
749.1779132071304	0.13833333333333334
748.7693374336906	0.03300000000000485
748.3607432045474	0.0560000000000097
747.9521305184559	0.11199999999999515
747.5434993741673	0.155
747.134849770426	0.09133333333333818
746.7261817059784	0.15633333333333818
746.3174951795825	0.06333333333333334
745.9087901899825	0.08433333333334303
745.500066735925	0.0160000000000097
745.091324816159	0.0789999999999903
744.6825644294398	0.043666666666661816
744.2737855745097	0.0189999999999903
743.8649882501174	0.075
743.4561724550099	0.03699999999999515
743.0473381879422	0.09800000000000485
742.6384854476568	-0.006333333333338184
742.2296142329003	-0.008333333333333333
741.8207245424215	0.034333333333343034
741.4118163749715	0.018666666666661814
741.002889729297	-0.06166666666666667
740.5939446041443	-0.09566666666665696
740.1849809982541	0.013999999999990298
739.7759989103856	-0.10533333333332848
739.3669983392814	0.09633333333333818
738.957979283686	0.06166666666666667
738.5489417423437	0.058999999999990296
738.13988571401	-0.02699999999999515
737.730811197425	0.08966666666667152
737.3217181913398	0.145
736.9126066944921	0.10633333333333818
736.5034767056397	0.08333333333333333
736.0943282235205	0.08966666666667152
735.6851612468854	0.035666666666656965
735.2759757744748	0.08800000000000485
734.8667718050416	0.1039999999999903
734.4575493373283	0.12633333333333818
734.0483083700792	0.14466666666667152
733.6390489020412	0.1363333333333382
733.2297709319565	0.07666666666666666
732.8204744585761	0.1713333333333382
732.4111594806445	0.1610000000000097
732.0018259969019	0.10199999999999515
731.5924740060949	0.08699999999999515
731.1831035069702	0.12333333333333334
730.7737144982744	0.2263333333333382
730.3643069787478	0.15633333333333818
729.9548809471348	0.06199999999999515
729.5454364021842	0.06566666666665696
729.1359733426384	0.08566666666665697
728.7264917672396	0.15633333333333818
728.3169916747303	0.1
727.9074730638592	0.0610000000000097
727.4979359333709	0.1289999999999903
727.0883802820032	0.02300000000000485
726.6788061085008	0.012666666666676369
726.2692134116146	0.14166666666666666
725.8596021900805	0.008666666666661816
725.449972442645	0.030666666666656964
725.0403241680441	0.07733333333332364
724.630657365033	0.15333333333333332
724.2209720323476	0.03
723.8112681687303	0.03266666666667637
723.4015457729232	0.12266666666667637
722.9918048436731	0.07800000000000486
722.5820453797202	0.04633333333333818
722.1722673798067	0.07866666666666182
721.7624708426707	0.10800000000000486
721.3526557670632	0.11966666666667151
720.94282215172	0.05433333333334303
720.5329699953855	0.0739999999999903
720.1230992967957	0.1989999999999903
719.7132100547013	0.0639999999999903
719.3033022678385	-0.021333333333338183
718.8933759349494	-0.04133333333333818
718.4834310547741	-0.016666666666666666
718.0734676260573	-0.006999999999995149
717.6634856475368	0.03233333333332363
717.2534851179572	-0.001333333333338184
716.8434660360522	0.13966666666667152
716.4334284005727	0.07699999999999516
716.0233722102523	0.0789999999999903
715.6132974638334	0.17300000000000484
715.2032041600562	0.15433333333334304
714.7930922976565	0.22333333333333333
714.3829618753853	0.18666666666666668
713.9728128919741	0.10566666666665697
713.562645346165	0.08966666666667152
713.1524592366941	0.15133333333333818
712.7422545623102	0.15766666666667636
712.3320313217469	0.1210000000000097
711.9217895137442	0.10633333333333818
711.5115291370382	0.09566666666665696
711.1012501903754	0.059333333333343036
710.6909526724916	0.06199999999999515
710.2806365821249	0.17199999999999516
709.870301918011	0.12633333333333818
709.4599486788967	0.10466666666667152
709.0495768635155	0.017666666666676368
708.6391864706077	0.020666666666656966
708.228777498909	0.04866666666666181
707.8183499471618	0.11033333333332848
707.4079038141018	0.14199999999999516
706.9974390984672	0.13466666666667151
706.5869557989937	0.13466666666667151
706.1764539144258	0.059333333333343036
705.7659334434971	0.002333333333323632
705.3553943849456	0.002333333333323632
704.9448367375052	0.06966666666667151
704.5342604999221	0.005333333333328483
704.123665670926	0.0310000000000097
703.7130522492591	0.0810000000000097
703.3024202336507	0.06699999999999515
702.8917696228474	0.09800000000000485
702.4811004155808	0.07
702.0704126105888	0.044333333333343036
701.6597062066053	-0.01699999999999515
701.2489812023722	0.1460000000000097
700.8382375966235	0.0889999999999903
700.4274753880926	0.13066666666665697
700.0166945755177	0.10266666666667637
699.6058951576366	0.17933333333334303
699.1950771331854	0.22533333333332847
698.7842405008996	-0.005333333333328483
698.3733852595066	0.09066666666665696
697.962511407755	0.07466666666667152
697.5516189443744	0.12199999999999515
697.1407078681002	0.08800000000000485
696.7297781776643	0.1260000000000097
696.3188298718089	0.10733333333332364
695.9078629492653	0.08733333333332363
695.4968774087696	0.049666666666671515
695.0858732490532	0.10199999999999515
694.6748504688518	0.09633333333333818
694.2638090669034	0.12333333333333334
693.8527490419395	0.14066666666665698
693.4416703926984	0.06466666666667152
693.0305731179045	0.1486666666666618
692.6194572163027	0.15633333333333818
692.2083226866246	0.20733333333332363
691.7971695276012	0.07566666666665696
691.3859977379644	0.025666666666656967
690.9748073164542	0.17199999999999516
690.563598261802	0.09133333333333818
690.1523705727373	0.00800000000000485
689.7411242479958	0.1546666666666715
689.3298592863133	0.028333333333333332
688.9185756864193	0.07300000000000485
688.5072734470516	0.05733333333332363
688.095952566933	0.11233333333332363
687.6846130448081	0.12066666666665697
687.273254879404	0.14733333333332363
686.8618780694522	0.08300000000000485
686.4504826136841	0.20266666666667638
686.0390685108379	0.21766666666667636
685.6276357596405	0.18333333333333332
685.216184358828	0.18133333333333818
684.804714307125	0.11699999999999515
684.3932256032718	0.075
683.981718245998	0.06733333333332363
683.5701922340304	0.12199999999999515
683.1586475661029	0.10133333333333819
682.747084240951	0.1060000000000097
682.3355022573022	0.17566666666665698
681.9239016138878	0.08633333333333819
681.5122823094371	0.17666666666666667
681.100644342686	0.2489999999999903
680.6889877123616	0.08666666666666667
680.2773124171954	0.13366666666666183
679.8656184559145	0.21899999999999029
679.4539058272569	0.15566666666665696
679.0421745299477	0.15199999999999514
678.6304245627183	0.1963333333333382
678.2186559242936	0.21699999999999514
677.8068686134138	0.26666666666666666
677.395062628804	0.14433333333334303
676.9832379691933	0.24699999999999514
676.5713946333069	0.17966666666667153
676.1595326198826	0.12833333333333333
675.7476519276477	0.1489999999999903
675.3357525553292	0.15566666666665696
674.9238345016566	0.18199999999999514
674.5118977653547	0.19266666666667637
674.0999423451638	0.24133333333333817
673.6879682398022	0.16333333333333333
673.2759754480059	0.2310000000000097
672.8639639684933	0.15266666666667636
672.4519338000044	0.22233333333332364
672.0398849412645	0.12866666666666182
671.6278173909984	0.10933333333334304
671.2157311479332	0.16699999999999515
670.8036262108026	0.19366666666666182
670.3915025783316	0.2
669.9793602492473	0.14433333333334303
669.5671992222748	0.10566666666665697
669.1550194961476	0.15300000000000485
668.7428210695929	0.20033333333332848
668.3306039413335	0.23833333333333334
667.9183681100944	0.08066666666665696
667.5061135746137	0.20566666666665698
667.0938403336097	0.11466666666667152
666.6815483858096	0.08933333333334303
666.2692377299405	0.16133333333333819
665.856908364734	0.18800000000000486
665.4445602889106	0.2613333333333382
665.0321935011997	0.27
664.6198080003242	0.20166666666666666
664.2074037850176	0.2010000000000097
663.7949808539984	0.17300000000000484
663.3825392059981	0.1489999999999903
662.9700788397353	0.0910000000000097
662.5575997539434	0.1839999999999903
662.1451019473432	0.14300000000000485
661.732585418664	0.11933333333334303
661.3200501666242	0.18766666666667636
660.9074961899598	0.14233333333332363
660.494923487387	0.21800000000000486
660.0823320576351	0.03199999999999515
659.6697218994246	0.08066666666665696
659.2570930114873	0.12166666666666667
658.8444453925414	0.043666666666661816
658.4317790413164	0.0410000000000097
658.0190939565284	0.07666666666666666
657.6063901369134	0.24733333333332364
657.1936675811899	0.16333333333333333
656.7809262880805	0.1839999999999903
656.3681662563105	0.14300000000000485
655.9553874846001	0.1810000000000097
655.5425899716812	0.24466666666667153
655.1297737162741	0.2139999999999903
654.7169387170998	0.19
654.3040849728786	0.18233333333332363
653.8912124823422	0.10133333333333819
653.4783212442112	0.07466666666667152
653.0654112572063	0.15
652.6524825200479	0.1853333333333285
652.2395350314655	0.12800000000000486
651.8265687901776	0.22800000000000484
651.4135837949091	0.21466666666667153
651.0005800443785	0.17066666666665697
650.5875575373129	0.22733333333332365
650.1745162724332	0.1386666666666618
649.7614562484596	0.24199999999999514
649.348377464113	0.095
648.9352799181206	0.19333333333333333
648.5221636092008	0.07300000000000485
648.1090285360741	0.14633333333333817
647.6958746974614	0.11366666666666182
647.2827020920896	0.15866666666666182
646.8695107186775	0.13033333333332847
646.4563005759431	0.1436666666666618
646.0430716626075	0.11800000000000485
645.6298239773976	0.09266666666667636
645.2165575190319	0.1860000000000097
644.8032722862267	0.20066666666665697
644.3899682777028	0.21833333333333332
643.9766454921893	0.0910000000000097
643.5633039283982	0.14333333333333334
643.1499435850546	0.15866666666666182
642.7365644608705	0.09199999999999516
642.3231665545771	0.11300000000000485
641.9097498648889	0.065
641.4963143905242	0.26699999999999513
641.0828601302013	0.20833333333333334
640.6693870826476	0.11866666666666181
640.2558952465771	0.2339999999999903
639.8423846207105	0.19066666666665696
639.4288552037599	0.08233333333332363
639.0153069944565	0.24433333333334303
638.6017399915146	0.18133333333333818
638.1881541936483	0.1546666666666715
637.7745495995827	0.1596666666666715
637.3609262080296	0.13366666666666183
636.9472840177161	0.10466666666667152
636.5336230273545	0.195
636.119943235665	0.09366666666666182
635.7062446413621	0.12433333333334304
635.2925272431705	0.13433333333334305
634.8787910398067	0.10666666666666667
634.4650360299848	0.15233333333332363
634.0512622124211	0.15833333333333333
633.6374695858384	0.19300000000000486
633.2236581489551	0.16233333333332364
632.8098279004832	0.17166666666666666
632.3959788391412	0.15
631.9821109636476	0.19233333333332364
631.5682242727231	0.22333333333333333
631.1543187650774	0.08300000000000485
630.7403944394289	0.21933333333334304
630.3264512944984	0.08066666666665696
629.9124893289999	0.17199999999999516
629.4985085416498	0.1646666666666715
629.08450893116	0.07800000000000486
628.6704904962556	0.07933333333334304
628.2564532356485	0.014666666666671517
627.8423971480548	0.15166666666666667
627.4283222321847	0.08600000000000971
627.0142284867629	0.12733333333332364
626.6001159105014	0.12566666666665696
626.1859845021144	0.12866666666666182
625.771834260316	0.16266666666667637
625.3576651838268	0.07933333333334304
624.9434772713589	0.14066666666665698
624.5292705216264	0.17333333333333334
624.1150449333433	0.17633333333333817
623.7008005052281	0.17433333333334303
623.2865372359929	0.21366666666666181
622.872255124354	0.21233333333332363
622.457954169021	0.17699999999999516
622.0436343687147	0.18866666666666182
621.629295722145	0.16199999999999515
621.2149382280302	0.22433333333334304
620.8005618850757	0.22866666666666183
620.3861666920067	0.15600000000000971
619.9717526475306	0.195
619.5573197503596	0.13666666666666666
619.1428679992077	0.044333333333343036
618.7283973927935	0.18933333333334304
618.3139079298264	0.24699999999999514
617.8993996090189	0.21366666666666181
617.4848724290849	0.19866666666666183
617.0703263887341	0.18466666666667153
616.6557614866873	0.23733333333332363
616.2411777216521	0.15833333333333333
615.8265750923404	0.1436666666666618
615.411953597462	0.22666666666666666
614.9973132357354	0.20666666666666667
614.5826540058705	0.22766666666667637
614.1679759065792	0.13033333333332847
613.7532789365712	0.18166666666666667
613.3385630945629	0.23666666666666666
612.9238283792641	0.20266666666667638
612.5090747893845	0.25733333333332364
612.0943023236341	0.21800000000000486
611.6795109807312	0.21300000000000485
611.2647007593813	0.2
610.8498716582986	0.22800000000000484
610.4350236761907	0.30233333333332363
610.0201568117717	0.2753333333333285
609.6052710637535	0.3403333333333285
609.1903664308418	0.2703333333333285
608.7754429117483	0.2786666666666618
608.3605005051894	0.2363333333333382
607.9455392098686	0.2389999999999903
607.5305590245018	0.1339999999999903
607.1155599477905	0.22133333333333818
606.700541978453	0.28066666666665696
606.2855051151969	0.329333333333343
605.8704493567299	0.2966666666666667
605.4553747017618	0.28633333333333816
605.0402811490067	0.23166666666666666
604.6251686971679	0.2783333333333333
604.2100373449596	0.2653333333333285
603.794887091085	0.17166666666666666
603.3797179342605	0.21233333333332363
602.9645298731892	0.28833333333333333
602.5493229065834	0.18333333333333332
602.1340970331482	0.2263333333333382
601.7188522515959	0.24433333333334303
601.3035885606339	0.16133333333333819
600.8883059589721	0.18933333333334304
600.4730044453094	0.16066666666665697
600.0576840183686	0.12
599.6423446768466	0.250666666666657
599.2269864194574	0.275
598.8116092449044	0.23733333333332363
598.3962131518952	0.21933333333334304
597.9807981391417	0.2436666666666618
597.5653642053495	0.1510000000000097
597.1499113492239	0.23833333333333334
596.7344395694705	0.1810000000000097
596.3189488648012	0.23666666666666666
595.9034392339214	0.08600000000000971
595.4879106755388	0.18933333333334304
595.0723631883525	0.1610000000000097
594.6567967710808	0.15699999999999514
594.2412114224227	0.2713333333333382
593.825607141088	0.24166666666666667
593.4099839257777	0.24033333333332849
592.9943417752039	0.27233333333332366
592.57868068807	0.15933333333334304
592.1630006630813	0.21366666666666181
591.7473016989411	0.10300000000000485
591.3315837943614	0.13666666666666666
590.9158469480456	0.26733333333332365
590.5000911586968	0.25733333333332364
590.0843164250163	0.20800000000000485
589.6685227457202	0.250666666666657
589.2527101195077	0.1460000000000097
588.8368785450818	0.15266666666667636
588.4210280211462	0.033666666666661814
588.0051585464104	0.2246666666666715
587.5892701195799	0.17033333333332848
587.1733627393536	0.2453333333333285
586.7574364044372	0.15300000000000485
586.341491113538	0.27199999999999513
585.9255268653596	0.23433333333334302
585.5095436586031	0.18233333333332363
585.0935414919694	0.2336666666666618
584.6775203641728	0.23433333333334302
584.26148027391	0.12699999999999514
583.8454212198844	0.18699999999999514
583.4293432007971	0.21933333333334304
583.0132462153579	0.1860000000000097
582.5971302622678	0.14033333333332848
582.1809953402259	0.17566666666665698
581.7648414479354	0.17800000000000485
581.3486685841062	0.135
580.9324767474351	0.2653333333333285
580.5162659366252	0.09566666666665696
580.1000361503757	0.13699999999999515
579.6837873873984	0.1596666666666715
579.267519646388	0.10033333333332849
578.8512329260478	0.12366666666666182
578.4349272250832	0.13333333333333333
578.0186025421867	0.185
577.6022588760703	0.12800000000000486
577.1858962254329	0.1160000000000097
576.7695145889734	0.11800000000000485
576.3531139653909	0.07066666666665697
575.9366943533951	0.11733333333332363
575.5202557516828	0.09866666666666181
575.1037981589529	0.13
574.6873215739046	0.1860000000000097
574.2708259952475	0.26066666666665694
573.854311421674	0.1553333333333285
573.4377778518897	0.09066666666665696
573.0212252845891	0.20233333333332362
572.6046537184778	0.1060000000000097
572.1880631522547	0.04633333333333818
571.7714535846209	0.21066666666665695
571.3548250142687	0.12366666666666182
570.9381774399104	0.20566666666665698
570.5215108602383	0.1489999999999903
570.1048252739535	0.12366666666666182
569.6881206797506	0.13033333333332847
569.2713970763372	0.09266666666667636
568.854654462408	0.06266666666667636
568.4378928366642	0.09966666666667151
568.0211121978002	0.09966666666667151
567.6043125445195	0.07433333333334304
567.187493875521	0.05366666666666182
566.7706561895014	0.03300000000000485
566.3537994851577	0.058333333333333334
565.9369237611908	0.2196666666666715
565.5200290162996	0.14699999999999516
565.1031152491812	0.13266666666667637
564.6861824585301	0.21133333333333817
564.2692306430516	0.20633333333333817
563.8522598014383	0.16933333333334302
563.4352699323913	0.15366666666666182
563.0182610345986	0.22433333333334304
562.6012331067724	0.1889999999999903
562.1841861476007	0.20800000000000485
561.7671201557823	0.08666666666666667
561.3500351300121	0.14333333333333334
560.9329310689911	0.14033333333332848
560.515807971416	0.19066666666665696
560.0986658359838	0.1436666666666618
559.6815046613867	0.1646666666666715
559.2643244463217	0.24133333333333817
558.847125189492	0.1539999999999903
558.4299068895878	0.23199999999999515
558.012669545306	0.25466666666667154
557.5954131553412	0.20533333333332848
557.1781377183946	0.24733333333332364
556.7608432331607	0.22366666666666182
556.343529698332	0.2676666666666764
555.926197112601	0.2826666666666764
555.5088454746709	0.23933333333334303
555.0914747832342	0.26666666666666666
554.6740850369855	0.1660000000000097
554.2566762346152	0.2563333333333382
553.8392483748285	0.15233333333332363
553.4218014563138	0.16833333333333333
553.0043354777655	0.1739999999999903
552.5868504378763	0.24233333333332363
552.1693463353471	0.14266666666667638
551.7518231688704	0.14
551.3342809371366	0.250666666666657
550.91671963884	0.19699999999999515
550.49913927268	0.2839999999999903
550.0815398373467	0.22433333333334304
549.6639213315347	0.2010000000000097
549.2462837539342	0.19666666666666666
548.8286271032442	0.2603333333333285
548.4109513781551	0.2703333333333285
547.9932565773614	0.22366666666666182
547.5755426995535	0.29199999999999515
547.1578097434281	0.4076666666666764
546.7400577076776	0.3
546.3222865909923	0.34
545.9044963920649	0.3383333333333333
545.4866871095918	0.33300000000000485
545.0688587422615	0.30333333333333334
544.6510112887704	0.34833333333333333
544.2331447478026	0.3446666666666715
543.8152591180612	0.36199999999999516
543.39735439823	0.35199999999999515
542.979430587006	0.3486666666666618
542.5614876830728	0.4280000000000049
542.1435256851336	0.3389999999999903
541.7255445918723	0.32566666666665695
541.3075444019836	0.40199999999999514
540.8895251141511	0.4189999999999903
540.471486727076	0.4266666666666667
540.0534292394465	0.415
539.6353526499506	0.48199999999999515
539.217256957283	0.430666666666657
538.7991421601253	0.5226666666666764
538.3810082571806	0.5626666666666764
537.962855247133	0.5203333333333284
537.5446831286725	0.5523333333333237
537.1264919004875	0.6346666666666715
536.7082815612724	0.4736666666666618
536.2900521097155	0.49233333333332363
535.871803544509	0.5916666666666667
535.4535358643325	0.5669999999999952
535.0352490678893	0.5253333333333284
534.6169431538631	0.5180000000000049
534.19861812094	0.5666666666666667
533.78027396781	0.5080000000000049
533.361910693168	0.635
532.9435282956977	0.6113333333333382
532.5251267740915	0.5939999999999903
532.1067061270311	0.6446666666666715
531.6882663532132	0.6230000000000049
531.2698074513237	0.679333333333343
530.8513294200487	0.6560000000000097
530.4328322580762	0.68
530.0143159641009	0.700666666666657
529.5957805368043	0.745
529.1772259748768	0.7610000000000097
528.7586522770022	0.8033333333333333
528.3400594418729	0.7896666666666715
527.9214474681769	0.8703333333333285
527.5028163546002	0.8826666666666764
527.0841660998245	1.0853333333333284
526.6654967025466	0.9213333333333382
526.2468081614481	1.080666666666657
525.8281004752192	1.083666666666662
525.4093736425393	1.205
524.9906276621032	1.1960000000000097
524.5718625325945	1.254333333333343
524.1530782526993	1.2803333333333284
523.7342748211013	1.255
523.3154522364929	1.385666666666657
522.896610497558	1.4926666666666764
522.4777496029803	1.4966666666666666
522.0588695514436	1.5773333333333237
521.6399703416404	1.6723333333333237
521.2210519722521	1.7826666666666764
520.8021144419671	2.024333333333343
520.3831577494668	1.9156666666666569
519.9641818934351	2.154333333333343
519.5451868725623	2.44
519.1261726855342	2.5396666666666716
518.7071393310304	2.623666666666662
518.2880868077347	2.870666666666657
517.8690151143393	3.066666666666667
517.449924249526	3.2733333333333334
517.0308142119765	3.5123333333333235
516.6116850003721	3.7816666666666667
516.1925366134055	4.173666666666662
515.7733690497562	4.499666666666672
515.3541823081079	4.9026666666666765
514.934976387142	5.407333333333324
514.5157512855491	6.01100000000001
514.0965070020062	6.730333333333329
513.6772435352017	7.44100000000001
513.2579608838126	8.155666666666656
512.8386590465294	9.195666666666657
512.4193380220314	10.075333333333328
511.99999780900464	11.260666666666657
511.580638406122	12.187666666666676
511.1612598120781	13.308333333333334
510.7418620255524	14.379666666666672
510.3224450452243	15.411666666666667
509.9030088697755	16.27399999999999
509.48355349789404	16.813333333333333
509.06407892825723	17.11533333333333
508.6445851595488	17.337333333333323
508.22507219044604	17.02533333333333
507.8055400196393	16.736333333333338
507.3859886458058	15.993666666666662
506.96641806762716	15.010666666666657
506.5468282837806	14.196999999999996
506.12721929295435	12.940333333333328
505.7075910938277	11.848666666666661
505.2879436850803	10.906666666666666
504.8682770653892	10.054666666666671
504.4485912334448	9.161999999999995
504.02888618792	8.372666666666676
503.6091619274987	7.668000000000005
503.1894184508558	6.9596666666666716
502.76965575668174	6.415666666666657
502.3498738436494	5.903333333333333
501.93007271044036	5.383333333333334
501.51025235573195	4.773333333333333
501.09041277821007	4.52399999999999
500.67055397655207	4.246000000000009
500.25067594943516	3.885666666666657
499.8307786955409	3.6953333333333287
499.41086221354453	3.556999999999995
498.9909265021319	3.2260000000000097
498.5709715599803	3.1153333333333286
498.15099738576487	2.84399999999999
497.73100397816495	2.603666666666662
497.31099133586446	2.466999999999995
496.89095945753843	2.2013333333333382
496.4709083418663	2.1826666666666763
496.050837987521	2.090666666666657
495.6307483931907	2.005
495.21063955754823	2.025666666666657
494.790511479271	1.903000000000005
494.37036415703403	1.7726666666666764
493.95019758952327	1.731999999999995
493.53001177541165	1.6686666666666619
493.1098067133765	1.5816666666666668
492.68958240209287	1.495666666666657
492.26933884024237	1.474333333333343
491.8490760265023	1.424333333333343
491.42879395954776	1.490666666666657
491.0084926380517	1.375666666666657
490.5881720607	1.3303333333333285
490.1678322261635	1.2316666666666667
489.7474731331217	1.2036666666666618
489.32709478024304	1.1986666666666619
488.9066971662135	1.1696666666666715
488.48628028970614	1.1960000000000097
488.0658441493982	1.1833333333333333
487.6453887439581	1.1386666666666618
487.224914072072	1.0510000000000097
486.8044201324106	0.970666666666657
486.38390692364896	1.0916666666666666
485.96337444446226	0.9973333333333236
485.5428226935299	0.8623333333333236
485.1222516695248	0.845666666666657
484.7016613711199	0.8433333333333334
484.28105179699037	0.7886666666666619
483.86042294581335	0.8983333333333333
483.43977481626627	0.8133333333333334
483.01910740701766	0.8496666666666716
482.59842071674257	0.8566666666666667
482.1777147441205	0.7713333333333382
481.75698948782224	0.8503333333333285
481.33624494652287	0.8353333333333285
480.91548111889534	0.714333333333343
480.4946980036104	0.7346666666666715
480.0738955993496	0.7339999999999903
479.65307390478165	0.5880000000000049
479.2322329185816	0.6446666666666715
478.81137263941804	0.6480000000000049
478.3904930659726	0.689333333333343
477.9695941969139	0.6433333333333333
477.5486760309148	0.5880000000000049
477.127738566644	0.7086666666666618
476.70678180278304	0.6053333333333285
476.28580573800053	0.5973333333333236
475.86481037096945	0.5846666666666716
475.44379570035835	0.5676666666666764
475.0227617248467	0.4960000000000097
474.6017084431009	0.5263333333333382
474.1806358537961	0.5276666666666764
473.75954395560086	0.5119999999999951
473.3384327471903	0.47833333333333333
472.91730222723737	0.4773333333333236
472.4961523944085	0.5523333333333237
472.07498324737657	0.45233333333332365
471.6537947848168	0.4453333333333285
471.2325870053998	0.4483333333333333
470.81135990779217	0.3953333333333285
470.3901134906646	0.44033333333332847
469.9688477526965	0.49433333333334306
469.54756269254995	0.4266666666666667
469.12625830890016	0.41933333333334305
468.7049346004113	0.41433333333334305
468.28359156576283	0.4186666666666618
467.86222920361905	0.4060000000000097
467.4408475126529	0.4676666666666764
467.0194464915286	0.4310000000000097
466.5980261389256	0.3383333333333333
466.176586453506	0.3939999999999903
465.75512743394273	0.42433333333334305
465.3336490789022	0.37666666666666665
464.91215138705746	0.3596666666666715
464.490634357077	0.379333333333343
464.0690979876294	0.3739999999999903
463.647542277379	0.31233333333332364
463.22596722500305	0.33433333333334303
462.80437282916796	0.4096666666666715
462.3827590885402	0.34800000000000486
461.96112600178395	0.3233333333333333
461.5394735675766	0.3363333333333382
461.1178017845845	0.3636666666666618
460.69611065147194	0.39666666666666667
460.2744001669097	0.44
459.8526703295598	0.45800000000000485
459.4309211380996	0.42766666666667635
459.00915259119125	0.35199999999999515
458.58736468750317	0.3636666666666618
458.1655574256997	0.2753333333333285
457.74373080445605	0.36966666666667153
457.321884822432	0.3636666666666618
456.9000194782984	0.3763333333333382
456.47813477071736	0.3416666666666667
456.0562306983639	0.36833333333333335
455.634307259898	0.37233333333332364
455.2123644539904	0.3413333333333382
454.7904022793011	0.29800000000000487
454.36842073450293	0.3476666666666764
453.9464198182602	0.33800000000000485
453.5243995292416	0.35800000000000487
453.1023598661026	0.28300000000000486
452.6803008275226	0.26600000000000973
452.2582224121617	0.22
451.83612461868404	0.19366666666666182
451.41400744575174	0.21899999999999029
450.9918708920399	0.3030000000000049
450.56971495620627	0.285
450.1475396369195	0.22066666666665696
449.72534493283945	0.2846666666666715
449.3031308426391	0.25333333333333335
448.88089736497835	0.16699999999999515
448.4586444985215	0.25766666666667637
448.03637224192846	0.19800000000000484
447.6140805938743	0.2360000000000097
447.19176955301896	0.2996666666666715
446.7694391180224	0.29066666666665697
446.347089287551	0.33366666666666184
445.9247200602713	0.2789999999999903
445.50233143484525	0.38666666666666666
445.079923409935	0.3460000000000097
444.6574959842027	0.29833333333333334
444.2350491563169	0.37966666666667154
443.8125829249397	0.24466666666667153
443.390097288731	0.3030000000000049
442.9675922463529	0.319333333333343
442.54506779647625	0.2103333333333285
442.12252393775657	0.20633333333333817
441.69996066885807	0.28433333333334304
441.277377988443	0.2813333333333382
440.85477589517325	0.34300000000000486
440.43215438771324	0.30766666666667636
440.00951346472505	0.3476666666666764
439.58685312487074	0.33666666666666667
439.16417336680587	0.32066666666665694
438.7414741892034	0.32800000000000484
438.31875559071676	0.20633333333333817
437.8960175700124	0.3326666666666764
437.4732601257437	0.27699999999999514
437.05048325658146	0.3376666666666764
436.62768696118343	0.2783333333333333
436.2048712382074	0.28433333333334304
435.7820360863154	0.3363333333333382
435.3591815041739	0.32
434.9363074904384	0.405
434.51341404377115	0.2726666666666764
434.09050116282765	0.309333333333343
433.6675688462765	0.3203333333333285
433.24461709277546	0.28300000000000486
432.8216459009802	0.33366666666666184
432.3986552695505	0.2996666666666715
431.9756451971529	0.3616666666666667
431.55261568244293	0.26233333333332365
431.12956672408274	0.31
430.70649832072354	0.31300000000000483
430.28341047103396	0.29933333333334305
429.8603031736717	0.3039999999999903
429.43717642729246	0.35133333333333816
429.0140302305539	0.38566666666665694
428.5908645821203	0.2560000000000097
428.1676794806494	0.3466666666666667
427.74447492479686	0.4026666666666764
427.3212509132182	0.3219999999999951
426.89800744458205	0.4096666666666715
426.4747445175375	0.3560000000000097
426.05146213074664	0.37666666666666665
425.6281602828629	0.36666666666666664
425.20483897255264	0.3283333333333333
424.7814981984672	0.41766666666667634
424.3581379592665	0.37833333333333335
423.9347582536018	0.3453333333333285
423.5113590801394	0.38466666666667154
423.0879404375329	0.44733333333332365
422.66450232444	0.3903333333333285
422.24104473951405	0.41199999999999515
421.8175676814172	0.3596666666666715
421.39407114880504	0.379333333333343
420.97055514033093	0.3760000000000097
420.54701965465495	0.37800000000000483
420.1234646904282	0.4003333333333285
419.6998902463128	0.5230000000000049
419.2762963209644	0.4330000000000048
418.8526829130364	0.35633333333333816
418.4290500211822	0.31
418.00539764406386	0.28800000000000486
417.5817257803349	0.365666666666657
417.15803442864865	0.34199999999999514
416.7343235876586	0.2836666666666618
416.3105932560246	0.3363333333333382
415.8868434324023	0.43766666666667636
415.4630741154451	0.38300000000000484
415.03928530380216	0.3310000000000097
414.61547699613976	0.4060000000000097
414.1916491911049	0.3789999999999903
413.767801887351	0.4846666666666715
413.34393508353367	0.4086666666666618
412.9200487783128	0.4166666666666667
412.49614297033526	0.4103333333333285
412.0722176582611	0.35333333333333333
411.64827284073493	0.4713333333333382
411.22430851642116	0.48699999999999516
410.80032468396655	0.4053333333333285
410.376321342029	0.3423333333333236
409.9522984892553	0.5043333333333431
409.5282561243077	0.35333333333333333
409.1041942458351	0.3939999999999903
408.6801128524889	0.31833333333333336
408.2560119429202	0.315
407.83189151578915	0.4089999999999903
407.40775156974246	0.30433333333334306
406.9835921034358	0.3310000000000097
406.5594131155161	0.4673333333333236
406.1352146046411	0.39233333333332365
405.7109965694642	0.2836666666666618
405.28675900863453	0.26933333333334303
404.86250192079893	0.3363333333333382
404.43822530461745	0.37833333333333335
404.01392915874123	0.32566666666665695
403.5896134818172	0.30666666666666664
403.1652782724945	0.2889999999999903
402.740923529433	0.2336666666666618
402.31654925127964	0.30199999999999516
401.8921554366857	0.360666666666657
401.4677420843024	0.370666666666657
401.0433091927745	0.4266666666666667
400.61885676076406	0.4266666666666667
400.1943847869137	0.3903333333333285
399.7698932698746	0.44166666666666665
399.345382208296	0.4986666666666618
398.9208516008334	0.41333333333333333
398.4963014461336	0.435
398.0717317428458	0.4260000000000097
397.647142489617	0.3476666666666764
397.2225336851048	0.3439999999999903
396.797905327954	0.27566666666665696
396.3732574168138	0.3339999999999903
395.9485899503309	0.389333333333343
395.52390292716103	0.35933333333334305
395.0991963459511	0.3566666666666667
394.6744702053458	0.2646666666666715
394.2497245039943	0.305666666666657
393.8249592405521	0.44033333333332847
393.40017441366183	0.4073333333333236
392.9753700219747	0.3739999999999903
392.5505460641355	0.4026666666666764
392.1257025387955	0.3769999999999952
391.70083944460373	0.3686666666666618
391.2759567802049	0.3283333333333333
390.8510545442461	0.34
390.42613273537836	0.4036666666666618
390.00119135225094	0.3523333333333236
389.57623039350636	0.2816666666666667
389.1512498577893	0.3710000000000097
388.72624974375765	0.3353333333333285
388.3012300500495	0.37166666666666665
387.8761907753162	0.3016666666666667
387.45113191820036	0.3713333333333382
387.0260534773531	0.42633333333333817
386.60095545141934	0.41933333333334305
386.1758378390437	0.32466666666667154
385.7507006388731	0.4746666666666715
385.3255438495567	0.4596666666666715
384.90036746973703	0.37733333333332364
384.47517149806316	0.40433333333334304
384.0499559331755	0.3736666666666618
383.6247207737275	0.3789999999999903
383.1994660183596	0.34199999999999514
382.77419166571866	0.3863333333333382
382.3488977144451	0.4583333333333333
381.92358416319234	0.32300000000000484
381.498251010603	0.38466666666667154
381.0728982553196	0.35899999999999027
380.6475258959869	0.36199999999999516
380.2221339312475	0.3769999999999952
379.7967223597549	0.3113333333333382
379.37129118014496	0.35199999999999515
378.94584039106695	0.35300000000000487
378.5203699911569	0.3210000000000097
378.09487997907036	0.41300000000000486
377.6693703534434	0.32566666666665695
377.243841112923	0.425666666666657
376.8182922561495	0.36699999999999516
376.3927237817721	0.384333333333343
375.96713568843103	0.375666666666657
375.541527974769	0.385
375.11590063942424	0.36766666666667636
374.6902536810523	0.4626666666666764
374.2645870982871	0.26233333333332365
373.8389008897734	0.37199999999999517
373.41319505415163	0.39233333333332365
372.9874695900686	0.34433333333334304
372.561724496167	0.35266666666667634
372.1359597710851	0.3813333333333382
371.7101754134632	0.23833333333333334
371.2843714219504	0.3239999999999903
370.8585477951872	0.3313333333333382
370.43270453181174	0.29300000000000487
370.00684163046236	0.3869999999999951
369.5809590897924	0.43533333333332846
369.1550569084336	0.405
368.7291350850329	0.3489999999999903
368.30319361822427	0.3789999999999903
367.87723250665454	0.4046666666666715
367.4512517489663	0.3739999999999903
367.0252513437956	0.5133333333333333
366.5992312897829	0.3616666666666667
366.17319158557297	0.32800000000000484
365.747132229804	0.2936666666666618
365.32105322111636	0.2803333333333285
364.8949545581462	0.27
364.46883623954045	0.28300000000000486
364.0426982639373	0.35133333333333816
363.616540629975	0.35899999999999027
363.19036333628964	0.48633333333333817
362.7641663815303	0.43199999999999517
362.3379497643287	0.4413333333333382
361.9117134833253	0.48300000000000487
361.4854575371626	0.5376666666666764
361.05918192447024	0.4739999999999903
360.6328866439016	0.535
360.20657169408406	0.4773333333333236
359.7802370736624	0.4089999999999903
359.3538827812684	0.48833333333333334
358.92750881554895	0.4330000000000048
358.5011151751379	0.45366666666666183
358.07470185867567	0.43166666666666664
357.6482688647919	0.4139999999999903
357.22181619213774	0.39866666666666184
356.7953438393429	0.46300000000000485
356.3688518050455	0.5076666666666764
355.94234008788163	0.5539999999999903
355.51580868649387	0.48199999999999515
355.0892575995162	0.6133333333333333
354.662686825589	0.4713333333333382
354.2360963633396	0.4646666666666715
353.8094862114171	0.5660000000000097
353.3828563684533	0.5516666666666666
352.95620683308425	0.5553333333333285
352.5295376039439	0.5633333333333334
352.1028486796747	0.49166666666666664
351.67614005890846	0.3403333333333285
351.24941174028345	0.4526666666666764
350.8226637224314	0.4613333333333382
350.395896003997	0.4796666666666715
349.9691085836077	0.4533333333333333
349.5423014599039	0.4173333333333236
349.11547463151516	0.3896666666666715
348.6886280970863	0.4816666666666667
348.26176185524673	0.5036666666666618
347.8348759046305	0.4
347.40797024387143	0.40300000000000485
346.9810448716122	0.49333333333333335
346.55409978648225	0.40300000000000485
346.12713498711554	0.45
345.70015047214383	0.4796666666666715
345.2731462402119	0.44666666666666666
344.8461222899449	0.48066666666665697
344.41907861998106	0.4533333333333333
343.9920152289479	0.3863333333333382
343.56493211548786	0.4
343.1378292782306	0.44566666666665694
342.71070671581214	0.38866666666666183
342.2835644268599	0.39233333333332365
341.85640241001437	0.4789999999999903
341.42922066390713	0.43233333333332363
341.0020191871679	0.42766666666667635
340.5747979784326	0.5019999999999951
340.14755703633097	0.4610000000000097
339.7202963595011	0.45933333333334303
339.2930159465705	0.4639999999999903
338.86571579617737	0.580666666666657
338.4383959069447	0.4980000000000048
338.0110562775131	0.5283333333333333
337.5836969065141	0.5173333333333237
337.15631779257734	0.5223333333333237
336.72891893433024	0.5339999999999903
336.30150033041315	0.5093333333333431
335.8740619794536	0.44466666666667154
335.44660388008316	0.455
335.01912603093155	0.39933333333334303
334.59162843063257	0.41300000000000486
334.164111077818	0.49766666666667636
333.7365739711174	0.4810000000000097
333.3090171091582	0.4930000000000048
332.88144049057644	0.5103333333333285
332.4538441140017	0.44866666666666183
332.02622797806356	0.43233333333332363
331.59859208138937	0.4739999999999903
331.1709364226152	0.36733333333332363
330.7432610003664	0.44233333333332364
330.31556581327675	0.4810000000000097
329.8878508599694	0.4363333333333382
329.46011613908246	0.485666666666657
329.0323616492413	0.49833333333333335
328.6045873890776	0.44
328.1767933572123	0.4626666666666764
327.7489795522879	0.46566666666665696
327.32114597292536	0.4716666666666667
326.89329261775424	0.4880000000000049
326.4654194853997	0.4726666666666764
326.0375265745001	0.4736666666666618
325.60961388367843	0.4716666666666667
325.1816814115642	0.5819999999999952
324.75372915678065	0.6213333333333382
324.3257571179637	0.530666666666657
323.8977652937386	0.594333333333343
323.46975368273064	0.5686666666666618
323.0417222835672	0.5276666666666764
322.61367109488435	0.5436666666666619
322.18560011530076	0.5143333333333431
321.75750934344825	0.5730000000000048
321.32939877795206	0.585
320.9012684174352	0.605
320.47311826053584	0.5226666666666764
320.0449483058729	0.5573333333333236
319.6167585520736	0.5103333333333285
319.18854899776323	0.5196666666666715
318.76031964157573	0.5269999999999951
318.332070482132	0.5546666666666715
317.9038015180594	0.5633333333333334
317.4755127479788	0.6053333333333285
317.04720417052425	0.6393333333333431
316.6188757843208	0.5389999999999903
316.1905275879894	0.5726666666666763
315.76215958015536	0.49233333333332363
315.3337717594525	0.5696666666666715
314.9053641244995	0.5830000000000048
314.4769366739217	0.5696666666666715
314.0484894063444	0.59
313.6200223203948	0.5583333333333333
313.19153541469825	0.6156666666666569
312.7630286878778	0.5836666666666618
312.3345021385521	0.5983333333333334
311.9059557653574	0.6366666666666667
311.4773895669123	0.6363333333333382
311.04880354184195	0.599333333333343
310.6201976887631	0.6439999999999902
310.1915720063139	0.5786666666666618
309.76292649310653	0.6316666666666667
309.33426114777274	0.735
308.90557596892484	0.7213333333333382
308.4768709551988	0.71
308.04814610521345	0.705666666666657
307.61940141759175	0.6066666666666667
307.1906368909525	0.6180000000000049
306.76185252392514	0.625
306.3330483151308	0.6486666666666618
305.9042242631923	0.6476666666666764
305.4753803667263	0.6910000000000097
305.0465166243624	0.7966666666666666
304.61763303472367	0.7510000000000097
304.1887295964288	0.7673333333333237
303.7598063080965	0.8423333333333236
303.3308631683563	0.87
302.90190017582705	0.8103333333333285
302.4729173291296	0.7913333333333382
302.04391462688477	0.7183333333333334
301.61489206771347	0.7483333333333333
301.18584965024104	0.8013333333333382
300.7567873730861	0.7936666666666619
300.3277052348696	0.804333333333343
299.89860323421027	0.8153333333333285
299.4694813697333	0.8496666666666716
299.04033964005737	0.8613333333333382
298.6111780438057	0.9096666666666715
298.18199657959036	0.9303333333333285
297.752795246041	0.8280000000000048
297.3235740417741	0.9213333333333382
296.8943329654107	1.0110000000000097
296.46507201556506	1.0389999999999904
296.0357911908646	1.0023333333333235
295.6064904899281	0.9360000000000097
295.17716991137206	1.1003333333333285
294.7478294538131	0.9803333333333285
294.3184691158764	0.9469999999999952
293.8890888961806	0.9646666666666716
293.4596887933425	0.9263333333333382
293.03026880597844	0.8910000000000097
292.6008289327138	0.8423333333333236
292.1713691721628	0.8860000000000097
291.7418895229465	0.8466666666666667
291.312389983677	0.9776666666666763
290.8828705529796	0.9686666666666618
290.4533312294709	0.9023333333333237
290.02377201176955	0.8573333333333236
289.59419289848563	0.8473333333333236
289.1645938882465	0.8680000000000049
288.7349749796687	0.8646666666666715
288.3053361713668	0.8423333333333236
287.8756774619528	0.7339999999999903
287.44599885005636	0.8953333333333284
287.0163003342854	0.8533333333333334
286.5865819132608	0.7546666666666715
286.1568435855947	0.7443333333333431
285.7270853499102	0.8130000000000048
285.2973072048218	0.7663333333333382
284.8675091489438	0.720666666666657
284.4376911808905	0.6726666666666764
284.00785329928516	0.6533333333333333
283.577995502742	0.6033333333333334
283.14811778987115	0.6403333333333285
282.7182201592914	0.6889999999999903
282.28830260962343	0.6369999999999951
281.85836513947754	0.6816666666666666
281.42840774747015	0.67
280.9984304322157	0.5423333333333237
280.5684331923285	0.6860000000000097
280.13841602642736	0.7616666666666667
279.70837893312665	0.7780000000000048
279.2783219110408	0.7669999999999951
278.84824495877757	0.720666666666657
278.41814807496235	0.7930000000000048
277.98803125820507	0.6969999999999952
277.557894507118	0.675
277.12773782031337	0.7
276.6975611964142	0.710666666666657
276.26736463402625	0.720666666666657
275.8371481317683	0.7360000000000096
275.4069116882459	0.6719999999999952
274.97665530208224	0.5719999999999952
274.54637897188735	0.6443333333333431
274.11608269627345	0.5719999999999952
273.68576647384845	0.6353333333333285
273.2554303032375	0.6339999999999903
272.82507418304425	0.5726666666666763
272.39469811188513	0.5946666666666716
271.9643020883682	0.635
271.533886111112	0.6380000000000049
271.10345017872675	0.6680000000000048
270.67299428982454	0.5896666666666716
270.2425184430133	0.6296666666666715
269.8120226369118	0.6289999999999903
269.38150687013	0.6039999999999903
268.9509711412781	0.5253333333333284
268.52041544896383	0.5216666666666666
268.08983979180596	0.5019999999999951
267.65924416841244	0.4860000000000097
267.2286285773954	0.579333333333343
266.7979930173607	0.4723333333333236
266.36733748692905	0.33933333333334303
265.9366619847041	0.35566666666665697
265.50596650929805	0.2803333333333285
265.07525105931876	0.4036666666666618
264.64451563338287	0.285
264.21376023009816	0.39233333333332365
263.78298484807476	0.23699999999999516
263.3521894859162	0.27566666666665696
262.9213741422434	0.2853333333333285
262.4905388156598	0.2539999999999903
262.0596835047756	0.250666666666657
261.62880820819856	0.22966666666667152
261.1979129245432	0.1553333333333285
260.7669976524172	0.16266666666667637
260.3360623904265	0.14233333333332363
259.90510713718317	0.12566666666665696
259.47413189128866	0.14566666666665695
259.04313665136385	0.06300000000000484
258.6121214160123	0.04699999999999515
258.1810861838397	0.08300000000000485
257.75003095345176	0.11466666666667152
257.31895572346724	0.08699999999999515
256.8878604924875	0.1060000000000097
256.45674525912045	0.11800000000000485
256.0256100219717	0.14566666666665695
255.59445477965582	0.14800000000000485
255.1632795307762	0.0310000000000097
254.73208427393865	0.08600000000000971
254.300869007751	-0.06699999999999515
253.8696337308255	-0.04233333333332363
253.4383784417657	-0.12633333333333818
253.0071031391773	-0.05966666666667152
252.57580782166383	0.014666666666671517
252.1444924878419	-0.004333333333343035
251.71315713631068	0.003999999999990299
251.28180176568023	0.025333333333328482
250.85042637454976	-0.017333333333323632
250.41903096153368	0.10466666666667152
249.9876155252377	0.049666666666671515
249.55618006426315	-0.06866666666666181
249.12472457721364	-0.011000000000009702
248.69324906270137	-0.034666666666671515
248.26175351933205	0.01
247.83023794570707	0.03833333333333333
247.3987023404278	0.05566666666665696
246.96714670210864	0.0160000000000097
246.53557102935096	-0.06066666666665697
246.10397532076047	0.019333333333343035
245.67235957493423	0.005333333333328483
245.24072379048877	0.03766666666667637
244.8090679660212	-0.03333333333333333
244.37739210013714	-0.025666666666656967
243.94569619143803	-0.035333333333328484
243.51398023853605	-0.009666666666671517
243.0822442400283	-0.016666666666666666
242.65048819452264	-0.042666666666676366
242.2187121006139	0.013000000000004851
241.78691595691873	0.03166666666666667
241.35509976203193	0.049333333333343034
240.9232635145614	0.07466666666667152
240.49140721310636	0.04666666666666667
240.059530856266	0.0560000000000097
239.62763444265474	-0.01199999999999515
239.1957179708696	-0.026333333333338184
238.76378143951197	0.07433333333334304
238.33182484718105	0.001333333333338184
237.89984819248693	-0.02033333333332848
237.46785147403094	-0.020666666666656966
237.03583469041013	-0.02699999999999515
236.6037978402259	0.026000000000009703
236.1717409220883	0.07666666666666666
235.7396639345922	0.11466666666667152
235.30756687634332	0.11566666666665697
234.87544974593433	0.059333333333343036
234.44331254197968	0.06300000000000484
234.01115526307206	0.04533333333332848
233.57897790781496	-0.06333333333333334
233.1467804748055	0.004333333333343035
232.7145629626515	-0.0189999999999903
232.28232536995006	-0.08466666666667151
231.8500676953025	0.049666666666671515
231.41778993730375	0.005
230.98549209456385	-0.043000000000004854
230.55317416567763	0.008999999999990299
230.12083614924651	0.007666666666676368
229.68847804386536	0.06866666666666181
229.2560998481399	0.13233333333332364
228.82370156066932	0.06633333333333818
228.39128318005285	0.07633333333333818
227.95884470488318	0.05533333333332848
227.5263861337704	-0.04800000000000485
227.09390746530931	-0.0033333333333333335
226.66140869809703	0.05566666666665696
226.22888983073057	0.0460000000000097
225.79635086181347	0.004666666666671517
225.36379178994494	0.00800000000000485
224.93121261371985	0.007333333333323632
224.4986133317331	0.024666666666671517
224.06599394259257	0.030333333333328483
223.63335444489314	0.03699999999999515
223.20069483722963	0.05800000000000485
222.76801511819698	-0.002333333333323632
222.33531528640088	0.09199999999999516
221.9025953404362	0.023333333333333334
221.4698552788978	0.028999999999990297
221.0370951003849	-0.051000000000009704
220.6043148034924	0.0539999999999903
220.17151438682168	-0.035333333333328484
219.73869384896756	0.004333333333343035
219.30585318852715	-0.09466666666667152
218.87299240409308	-0.010666666666656966
218.440111494269	-0.05266666666667637
218.0072104576475	-0.06466666666667152
217.5742892928257	0.050333333333328484
217.1413479983941	-0.014666666666671517
216.70838657295846	-0.03933333333334303
216.27540501510927	0.06199999999999515
215.8424033234436	0.004333333333343035
215.40938149655196	0.029333333333343033
214.97633953303793	0.026333333333338184
214.5432774314942	0.016666666666666666
214.11019519051567	0.09866666666666181
213.67709280869065	0.029333333333343033
213.24397028462707	0.15066666666665696
212.8108276169111	0.07166666666666667
212.37766480413984	0.055
211.9444818449016	0.043666666666661816
211.51127873780212	-0.06366666666666182
211.0780554814319	0.035333333333328484
210.64481207438155	-0.0016666666666666668
210.21154851524156	-0.08966666666667152
209.77826480261763	-0.021666666666666667
209.34496093509603	0.007333333333323632
208.91163691127156	-0.04233333333332363
208.47829272973476	0.01699999999999515
208.0449283890849	0.03966666666667152
207.6115438879125	0.08833333333333333
207.17813922481238	0.03333333333333333
206.74471439836861	0.07933333333334304
206.31126940718693	0.11
205.87780424985567	0.09333333333333334
