768.7678709118609	0.03833333333333333
768.3601795435875	0.13666666666666666
767.9524697795084	0.13366666666666183
767.5447416183789	0.14766666666667635
767.1369950589522	0.16233333333332364
766.7292300999793	0.1460000000000097
766.321446740222	0.1960000000000097
765.9136449784291	0.0989999999999903
765.5058248133583	0.05533333333332848
765.0979862437583	0.05633333333333818
764.6901292683908	-0.021666666666666667
764.2822538860049	-0.004666666666671517
763.8743600953579	0.09566666666665696
763.4664478951966	0.10166666666666667
763.0585172842827	0.0839999999999903
762.6505682613673	0.016333333333338185
762.2426008252036	0.09633333333333818
761.8346149745404	0.09766666666667637
761.4266107081372	0.1060000000000097
761.0185880247452	0.051000000000009704
760.6105469231176	0.16566666666665697
760.202487402003	0.1110000000000097
759.7944094601592	0.10033333333332849
759.3863130963391	0.09333333333333334
758.9781983092939	0.03966666666667152
758.5700650977723	0.0389999999999903
758.1619134605319	0.07966666666667152
757.7537433963257	0.0739999999999903
757.3455549039006	0.08199999999999515
756.9373479820074	0.14333333333333334
756.529122629406	0.16866666666666183
756.1208788448427	0.23566666666665698
755.7126166270709	0.2263333333333382
755.3043359748374	0.07333333333333333
754.8960368869017	0.15333333333333332
754.4877193620104	0.10300000000000485
754.0793833989146	0.085
753.671028996363	0.11300000000000485
753.2626561531134	0.11066666666665696
752.8542648679122	0.0839999999999903
752.4458551395104	0.03966666666667152
752.0374269666613	0.08933333333334303
751.6289803481072	0.13466666666667151
751.2205152826077	0.085
750.8120317689096	0.1439999999999903
750.4035298057637	0.12066666666665697
749.9950093919146	0.11633333333333819
749.586470526122	0.17666666666666667
749.1779132071304	0.14333333333333334
748.7693374336906	0.11233333333332363
748.3607432045474	0.13966666666667152
747.9521305184559	0.14466666666667152
747.5434993741673	0.08766666666667637
747.134849770426	0.06266666666667636
746.7261817059784	0.17800000000000485
746.3174951795825	0.11533333333332849
745.9087901899825	0.12733333333332364
745.500066735925	0.07100000000000971
745.091324816159	0.15699999999999514
744.6825644294398	0.09199999999999516
744.2737855745097	0.15866666666666182
743.8649882501174	0.13966666666667152
743.4561724550099	0.13033333333332847
743.0473381879422	0.09366666666666182
742.6384854476568	0.115
742.2296142329003	0.17699999999999516
741.8207245424215	0.13300000000000486
741.4118163749715	0.10166666666666667
741.002889729297	0.08166666666666667
740.5939446041443	0.051000000000009704
740.1849809982541	0.03733333333332363
739.7759989103856	0.06966666666667151
739.3669983392814	0.04833333333333333
738.957979283686	0.1139999999999903
738.5489417423437	0.09633333333333818
738.13988571401	0.19166666666666668
737.730811197425	0.11366666666666182
737.3217181913398	0.010666666666656966
736.9126066944921	0.058333333333333334
736.5034767056397	0.10699999999999515
736.0943282235205	0.07266666666667637
735.6851612468854	0.15866666666666182
735.2759757744748	0.15699999999999514
734.8667718050416	0.021000000000009702
734.4575493373283	0.07433333333334304
734.0483083700792	0.1039999999999903
733.6390489020412	0.05333333333333334
733.2297709319565	0.14266666666667638
732.8204744585761	0.10199999999999515
732.4111594806445	0.05533333333332848
732.0018259969019	0.05433333333334303
731.5924740060949	0.01199999999999515
731.1831035069702	0.08033333333332848
730.7737144982744	0.11433333333334303
730.3643069787478	0.09766666666667637
729.9548809471348	0.10266666666667637
729.5454364021842	0.16033333333332847
729.1359733426384	0.13699999999999515
728.7264917672396	0.155
728.3169916747303	0.10533333333332848
727.9074730638592	0.08
727.4979359333709	0.175
727.0883802820032	0.04033333333332848
726.6788061085008	0.0003333333333284827
726.2692134116146	0.024333333333343036
725.8596021900805	0.05
725.449972442645	0.10433333333334303
725.0403241680441	0.1503333333333285
724.630657365033	0.06800000000000485
724.2209720323476	0.135
723.8112681687303	0.04766666666667637
723.4015457729232	0.07800000000000486
722.9918048436731	-0.0019999999999951493
722.5820453797202	0.055
722.1722673798067	0.041666666666666664
721.7624708426707	0.07666666666666666
721.3526557670632	0.10433333333334303
720.94282215172	0.041666666666666664
720.5329699953855	-0.04666666666666667
720.1230992967957	0.07933333333334304
719.7132100547013	0.11966666666667151
719.3033022678385	0.033666666666661814
718.8933759349494	0.06933333333334303
718.4834310547741	0.17033333333332848
718.0734676260573	0.08233333333332363
717.6634856475368	0.06666666666666667
717.2534851179572	0.0310000000000097
716.8434660360522	0.11833333333333333
716.4334284005727	0.12666666666666668
716.0233722102523	0.11133333333333818
715.6132974638334	0.06333333333333334
715.2032041600562	0.029666666666671518
714.7930922976565	-0.008666666666661816
714.3829618753853	0.016666666666666666
713.9728128919741	0.12266666666667637
713.562645346165	0.03933333333334303
713.1524592366941	0.058666666666661815
712.7422545623102	0.12166666666666667
712.3320313217469	0.07666666666666666
711.9217895137442	0.085
711.5115291370382	0.06066666666665697
711.1012501903754	0.12233333333332364
710.6909526724916	0.08866666666666181
710.2806365821249	0.1436666666666618
709.870301918011	0.09
709.4599486788967	0.09766666666667637
709.0495768635155	0.003666666666661816
708.6391864706077	-0.001333333333338184
708.228777498909	0.025333333333328482
707.8183499471618	0.0789999999999903
707.4079038141018	0.050666666666656965
706.9974390984672	0.051333333333338185
706.5869557989937	0.04699999999999515
706.1764539144258	0.10733333333332364
705.7659334434971	0.15833333333333333
705.3553943849456	0.16566666666665697
704.9448367375052	0.11033333333332848
704.5342604999221	0.08
704.123665670926	0.17
703.7130522492591	0.10433333333334303
703.3024202336507	0.17933333333334303
702.8917696228474	0.1239999999999903
702.4811004155808	0.20433333333334303
702.0704126105888	0.09033333333332848
701.6597062066053	0.16866666666666183
701.2489812023722	0.0910000000000097
700.8382375966235	0.058333333333333334
700.4274753880926	0.0889999999999903
700.0166945755177	0.023333333333333334
699.6058951576366	-0.0003333333333284827
699.1950771331854	-0.0019999999999951493
698.7842405008996	0.03833333333333333
698.3733852595066	-0.030333333333328483
697.962511407755	-0.002333333333323632
697.5516189443744	0.014666666666671517
697.1407078681002	0.10733333333332364
696.7297781776643	-0.08433333333334303
696.3188298718089	0.13366666666666183
695.9078629492653	0.0910000000000097
695.4968774087696	0.07199999999999515
695.0858732490532	0.016666666666666666
694.6748504688518	0.07199999999999515
694.2638090669034	0.10699999999999515
693.8527490419395	0.0489999999999903
693.4416703926984	0.05733333333332363
693.0305731179045	0.10300000000000485
692.6194572163027	0.06166666666666667
692.2083226866246	0.07
691.7971695276012	0.11766666666667637
691.3859977379644	0.2410000000000097
690.9748073164542	0.0789999999999903
690.563598261802	0.08933333333334303
690.1523705727373	0.09066666666665696
689.7411242479958	0.08766666666667637
689.3298592863133	0.11166666666666666
688.9185756864193	0.14766666666667635
688.5072734470516	0.10566666666665697
688.095952566933	0.08266666666667637
687.6846130448081	0.0960000000000097
687.273254879404	0.060333333333328486
686.8618780694522	0.10766666666667636
686.4504826136841	0.17
686.0390685108379	0.10933333333334304
685.6276357596405	0.22433333333334304
685.216184358828	0.18366666666666182
684.804714307125	0.12766666666667636
684.3932256032718	0.1160000000000097
683.981718245998	0.10199999999999515
683.5701922340304	0.14333333333333334
683.1586475661029	0.08533333333332849
682.747084240951	0.19433333333334304
682.3355022573022	0.08233333333332363
681.9239016138878	0.16933333333334302
681.5122823094371	0.11800000000000485
681.100644342686	0.15233333333332363
680.6889877123616	0.051666666666666666
680.2773124171954	0.14466666666667152
679.8656184559145	0.06199999999999515
679.4539058272569	0.06266666666667636
679.0421745299477	0.13266666666667637
678.6304245627183	0.07033333333332849
678.2186559242936	0.05633333333333818
677.8068686134138	0.04833333333333333
677.395062628804	0.1060000000000097
676.9832379691933	-0.04066666666665696
676.5713946333069	-0.013333333333333334
676.1595326198826	0.02699999999999515
675.7476519276477	0.125
675.3357525553292	0.02266666666667637
674.9238345016566	0.16133333333333819
674.5118977653547	0.15633333333333818
674.0999423451638	0.11800000000000485
673.6879682398022	0.1160000000000097
673.2759754480059	0.1289999999999903
672.8639639684933	0.13833333333333334
672.4519338000044	0.10466666666667152
672.0398849412645	0.14066666666665698
671.6278173909984	0.0960000000000097
671.2157311479332	0.2289999999999903
670.8036262108026	0.2203333333333285
670.3915025783316	0.08300000000000485
669.9793602492473	0.12699999999999514
669.5671992222748	0.11133333333333818
669.1550194961476	0.07966666666667152
668.7428210695929	0.08166666666666667
668.3306039413335	0.14666666666666667
667.9183681100944	0.18233333333332363
667.5061135746137	0.12433333333334304
667.0938403336097	0.14933333333334303
666.6815483858096	0.18266666666667636
666.2692377299405	0.12933333333334304
665.856908364734	0.15366666666666182
665.4445602889106	0.145
665.0321935011997	0.1436666666666618
664.6198080003242	0.16800000000000484
664.2074037850176	0.08266666666667637
663.7949808539984	0.2676666666666764
663.3825392059981	0.14666666666666667
662.9700788397353	0.06566666666665696
662.5575997539434	0.1289999999999903
662.1451019473432	0.1413333333333382
661.732585418664	0.17
661.3200501666242	0.2536666666666618
660.9074961899598	0.28933333333334305
660.494923487387	0.1660000000000097
660.0823320576351	0.245
659.6697218994246	0.08833333333333333
659.2570930114873	0.21066666666665695
658.8444453925414	0.20966666666667153
658.4317790413164	0.11233333333332363
658.0190939565284	0.21366666666666181
657.6063901369134	0.23333333333333334
657.1936675811899	0.235
656.7809262880805	0.18066666666665696
656.3681662563105	0.15733333333332364
655.9553874846001	0.14066666666665698
655.5425899716812	0.13466666666667151
655.1297737162741	0.24066666666665695
654.7169387170998	0.08
654.3040849728786	0.11266666666667637
653.8912124823422	0.18300000000000485
653.4783212442112	0.21666666666666667
653.0654112572063	0.1503333333333285
652.6524825200479	0.11266666666667637
652.2395350314655	0.1413333333333382
651.8265687901776	0.16833333333333333
651.4135837949091	0.08166666666666667
651.0005800443785	0.17699999999999516
650.5875575373129	0.2310000000000097
650.1745162724332	0.085
649.7614562484596	0.06300000000000484
649.348377464113	0.07033333333332849
648.9352799181206	0.0639999999999903
648.5221636092008	0.11966666666667151
648.1090285360741	0.08433333333334303
647.6958746974614	0.06966666666667151
647.2827020920896	0.15333333333333332
646.8695107186775	0.05966666666667152
646.4563005759431	-0.003666666666661816
646.0430716626075	0.14533333333332848
645.6298239773976	0.0939999999999903
645.2165575190319	0.06333333333333334
644.8032722862267	0.09766666666667637
644.3899682777028	0.1896666666666715
643.9766454921893	0.2336666666666618
643.5633039283982	0.20166666666666666
643.1499435850546	0.21666666666666667
642.7365644608705	0.15633333333333818
642.3231665545771	0.2110000000000097
641.9097498648889	0.16966666666667152
641.4963143905242	0.16433333333334305
641.0828601302013	0.28
640.6693870826476	0.1713333333333382
640.2558952465771	0.16733333333332362
639.8423846207105	0.12699999999999514
639.4288552037599	0.18766666666667636
639.0153069944565	0.18266666666667636
638.6017399915146	0.12766666666667636
638.1881541936483	0.0689999999999903
637.7745495995827	0.05199999999999515
637.3609262080296	0.21733333333332364
636.9472840177161	0.1503333333333285
636.5336230273545	0.22800000000000484
636.119943235665	0.18433333333334304
635.7062446413621	0.13233333333332364
635.2925272431705	0.16566666666665697
634.8787910398067	0.2496666666666715
634.4650360299848	0.20066666666665697
634.0512622124211	0.22866666666666183
633.6374695858384	0.125
633.2236581489551	0.2783333333333333
632.8098279004832	0.2086666666666618
632.3959788391412	0.07866666666666182
631.9821109636476	0.1439999999999903
631.5682242727231	0.21833333333333332
631.1543187650774	0.12333333333333334
630.7403944394289	0.06
630.3264512944984	0.1553333333333285
629.9124893289999	0.1739999999999903
629.4985085416498	0.15066666666665696
629.08450893116	0.1189999999999903
628.6704904962556	0.22333333333333333
628.2564532356485	0.17233333333332362
627.8423971480548	0.17466666666667152
627.4283222321847	0.1736666666666618
627.0142284867629	0.16833333333333333
626.6001159105014	0.21133333333333817
626.1859845021144	0.17266666666667638
625.771834260316	0.27199999999999513
625.3576651838268	0.14533333333332848
624.9434772713589	0.21899999999999029
624.5292705216264	0.20533333333332848
624.1150449333433	0.19566666666665697
623.7008005052281	0.29133333333333816
623.2865372359929	0.16833333333333333
622.872255124354	0.24433333333334303
622.457954169021	0.2726666666666764
622.0436343687147	0.15433333333334304
621.629295722145	0.145
621.2149382280302	0.21300000000000485
620.8005618850757	0.15366666666666182
620.3861666920067	0.15733333333332364
619.9717526475306	0.09800000000000485
619.5573197503596	0.13733333333332362
619.1428679992077	0.07533333333332848
618.7283973927935	0.17800000000000485
618.3139079298264	0.11533333333332849
617.8993996090189	0.13366666666666183
617.4848724290849	0.17666666666666667
617.0703263887341	0.11800000000000485
616.6557614866873	0.095
616.2411777216521	0.16199999999999515
615.8265750923404	0.20300000000000484
615.411953597462	0.19800000000000484
614.9973132357354	0.12833333333333333
614.5826540058705	0.1760000000000097
614.1679759065792	0.1510000000000097
613.7532789365712	0.155
613.3385630945629	0.15699999999999514
612.9238283792641	0.22766666666667637
612.5090747893845	0.18633333333333818
612.0943023236341	0.19199999999999515
611.6795109807312	0.22333333333333333
611.2647007593813	0.1896666666666715
610.8498716582986	0.20300000000000484
610.4350236761907	0.1803333333333285
610.0201568117717	0.21933333333334304
609.6052710637535	0.17033333333332848
609.1903664308418	0.2013333333333382
608.7754429117483	0.23300000000000484
608.3605005051894	0.24300000000000485
607.9455392098686	0.29433333333334305
607.5305590245018	0.2589999999999903
607.1155599477905	0.3060000000000097
606.700541978453	0.3276666666666764
606.2855051151969	0.26733333333332365
605.8704493567299	0.25966666666667154
605.4553747017618	0.3313333333333382
605.0402811490067	0.23933333333334303
604.6251686971679	0.2436666666666618
604.2100373449596	0.30033333333332846
603.794887091085	0.22300000000000486
603.3797179342605	0.19300000000000486
602.9645298731892	0.18066666666665696
602.5493229065834	0.20833333333333334
602.1340970331482	0.13566666666665697
601.7188522515959	0.1539999999999903
601.3035885606339	0.14566666666665695
600.8883059589721	0.17466666666667152
600.4730044453094	0.24699999999999514
600.0576840183686	0.21633333333333818
599.6423446768466	0.07466666666667152
599.2269864194574	0.24199999999999514
598.8116092449044	0.16666666666666666
598.3962131518952	0.17333333333333334
597.9807981391417	0.16366666666666183
597.5653642053495	0.18800000000000486
597.1499113492239	0.23199999999999515
596.7344395694705	0.1739999999999903
596.3189488648012	0.23699999999999516
595.9034392339214	0.19
595.4879106755388	0.3573333333333236
595.0723631883525	0.155
594.6567967710808	0.1589999999999903
594.2412114224227	0.2139999999999903
593.825607141088	0.17533333333332848
593.4099839257777	0.08866666666666181
592.9943417752039	0.165
592.57868068807	0.14533333333332848
592.1630006630813	0.2210000000000097
591.7473016989411	0.17300000000000484
591.3315837943614	0.18366666666666182
590.9158469480456	0.22366666666666182
590.5000911586968	0.16766666666667637
590.0843164250163	0.09066666666665696
589.6685227457202	0.07966666666667152
589.2527101195077	0.11
588.8368785450818	0.09766666666667637
588.4210280211462	0.12466666666667152
588.0051585464104	0.1589999999999903
587.5892701195799	0.15
587.1733627393536	0.20333333333333334
586.7574364044372	0.15566666666665696
586.341491113538	0.0989999999999903
585.9255268653596	0.2739999999999903
585.5095436586031	0.18666666666666668
585.0935414919694	0.26933333333334303
584.6775203641728	0.23266666666667637
584.26148027391	0.16666666666666666
583.8454212198844	0.19266666666667637
583.4293432007971	0.22300000000000486
583.0132462153579	0.24766666666667636
582.5971302622678	0.18199999999999514
582.1809953402259	0.16699999999999515
581.7648414479354	0.16
581.3486685841062	0.1313333333333382
580.9324767474351	0.08466666666667151
580.5162659366252	0.07966666666667152
580.1000361503757	0.09199999999999516
579.6837873873984	0.057666666666676365
579.267519646388	0.07066666666665697
578.8512329260478	0.08600000000000971
578.4349272250832	0.11633333333333819
578.0186025421867	0.13366666666666183
577.6022588760703	0.09633333333333818
577.1858962254329	0.07533333333332848
576.7695145889734	0.14199999999999516
576.3531139653909	0.08933333333334303
575.9366943533951	0.1339999999999903
575.5202557516828	0.20466666666667152
575.1037981589529	0.14
574.6873215739046	0.21699999999999514
574.2708259952475	0.2239999999999903
573.854311421674	0.24833333333333332
573.4377778518897	0.27166666666666667
573.0212252845891	0.13033333333332847
572.6046537184778	0.07300000000000485
572.1880631522547	0.043666666666661816
571.7714535846209	0.17033333333332848
571.3548250142687	0.12300000000000486
570.9381774399104	0.1486666666666618
570.5215108602383	0.10366666666666181
570.1048252739535	0.06166666666666667
569.6881206797506	0.10566666666665697
569.2713970763372	0.26300000000000484
568.854654462408	0.16966666666667152
568.4378928366642	0.1689999999999903
568.0211121978002	0.08633333333333819
567.6043125445195	0.06566666666665696
567.187493875521	0.14166666666666666
566.7706561895014	0.1413333333333382
566.3537994851577	0.14733333333332363
565.9369237611908	0.15800000000000486
565.5200290162996	0.08133333333333818
565.1031152491812	0.17800000000000485
564.6861824585301	0.10633333333333818
564.2692306430516	0.14199999999999516
563.8522598014383	0.15433333333334304
563.4352699323913	0.18
563.0182610345986	0.19933333333334302
562.6012331067724	0.25166666666666665
562.1841861476007	0.25966666666667154
561.7671201557823	0.21
561.3500351300121	0.2796666666666715
560.9329310689911	0.19233333333332364
560.515807971416	0.15266666666667636
560.0986658359838	0.17333333333333334
559.6815046613867	0.26666666666666666
559.2643244463217	0.16666666666666666
558.847125189492	0.2513333333333382
558.4299068895878	0.29333333333333333
558.012669545306	0.3010000000000097
557.5954131553412	0.13800000000000484
557.1781377183946	0.14300000000000485
556.7608432331607	0.22300000000000486
556.343529698332	0.19533333333332847
555.926197112601	0.18833333333333332
555.5088454746709	0.325
555.0914747832342	0.25566666666665694
554.6740850369855	0.20800000000000485
554.2566762346152	0.2389999999999903
553.8392483748285	0.2866666666666667
553.4218014563138	0.255
553.0043354777655	0.19566666666665697
552.5868504378763	0.19966666666667152
552.1693463353471	0.3296666666666715
551.7518231688704	0.3410000000000097
551.3342809371366	0.23533333333332848
550.91671963884	0.23166666666666666
550.49913927268	0.29133333333333816
550.0815398373467	0.2263333333333382
549.6639213315347	0.2453333333333285
549.2462837539342	0.28933333333334305
548.8286271032442	0.2160000000000097
548.4109513781551	0.23933333333334303
547.9932565773614	0.2646666666666715
547.5755426995535	0.18733333333332364
547.1578097434281	0.24333333333333335
546.7400577076776	0.1939999999999903
546.3222865909923	0.3233333333333333
545.9044963920649	0.21666666666666667
545.4866871095918	0.27666666666666667
545.0688587422615	0.26933333333334303
544.6510112887704	0.310666666666657
544.2331447478026	0.3453333333333285
543.8152591180612	0.3586666666666618
543.39735439823	0.4013333333333382
542.979430587006	0.32800000000000484
542.5614876830728	0.3663333333333382
542.1435256851336	0.43033333333332846
541.7255445918723	0.37766666666667636
541.3075444019836	0.4280000000000049
540.8895251141511	0.3896666666666715
540.471486727076	0.3760000000000097
540.0534292394465	0.31800000000000483
539.6353526499506	0.44766666666667637
539.217256957283	0.41800000000000487
538.7991421601253	0.4280000000000049
538.3810082571806	0.41333333333333333
537.962855247133	0.46366666666666184
537.5446831286725	0.4716666666666667
537.1264919004875	0.5733333333333334
536.7082815612724	0.5623333333333236
536.2900521097155	0.5580000000000048
535.871803544509	0.4676666666666764
535.4535358643325	0.4653333333333285
535.0352490678893	0.57
534.6169431538631	0.5710000000000097
534.19861812094	0.6230000000000049
533.78027396781	0.515
533.361910693168	0.6083333333333333
532.9435282956977	0.675666666666657
532.5251267740915	0.5639999999999903
532.1067061270311	0.5980000000000049
531.6882663532132	0.5569999999999952
531.2698074513237	0.645
530.8513294200487	0.6119999999999951
530.4328322580762	0.6163333333333382
530.0143159641009	0.7246666666666716
529.5957805368043	0.7353333333333285
529.1772259748768	0.6833333333333333
528.7586522770022	0.83
528.3400594418729	0.7016666666666667
527.9214474681769	0.7383333333333333
527.5028163546002	0.82
527.0841660998245	0.8076666666666764
526.6654967025466	0.8886666666666618
526.2468081614481	0.8856666666666569
525.8281004752192	0.9946666666666715
525.4093736425393	0.9933333333333333
524.9906276621032	1.0436666666666619
524.5718625325945	1.1123333333333236
524.1530782526993	1.1163333333333383
523.7342748211013	1.1076666666666763
523.3154522364929	1.2276666666666765
522.896610497558	1.2919999999999952
522.4777496029803	1.2786666666666617
522.0588695514436	1.3516666666666666
521.6399703416404	1.4460000000000097
521.2210519722521	1.5576666666666763
520.8021144419671	1.6403333333333285
520.3831577494668	1.734333333333343
519.9641818934351	1.8153333333333286
519.5451868725623	1.9433333333333334
519.1261726855342	2.061333333333338
518.7071393310304	2.1783333333333332
518.2880868077347	2.3216666666666668
517.8690151143393	2.421666666666667
517.449924249526	2.581333333333338
517.0308142119765	2.7003333333333286
516.6116850003721	2.9696666666666713
516.1925366134055	3.23899999999999
515.7733690497562	3.426999999999995
515.3541823081079	3.8516666666666666
514.934976387142	4.017666666666677
514.5157512855491	4.316999999999995
514.0965070020062	4.823333333333333
513.6772435352017	5.168666666666661
513.2579608838126	5.742666666666676
512.8386590465294	6.264333333333343
512.4193380220314	6.846666666666667
511.99999780900464	7.536666666666667
511.580638406122	8.160666666666657
511.1612598120781	8.95
510.7418620255524	10.05899999999999
510.3224450452243	10.916666666666666
509.9030088697755	11.66100000000001
509.48355349789404	12.546333333333338
509.06407892825723	13.365666666666657
508.6445851595488	14.045
508.22507219044604	14.7
507.8055400196393	15.08466666666667
507.3859886458058	15.35399999999999
506.96641806762716	15.016000000000009
506.5468282837806	14.811999999999996
506.12721929295435	14.32600000000001
505.7075910938277	13.848333333333333
505.2879436850803	13.065
504.8682770653892	12.23100000000001
504.4485912334448	11.377333333333324
504.02888618792	10.736666666666666
503.6091619274987	9.87899999999999
503.1894184508558	8.95966666666667
502.76965575668174	8.319333333333343
502.3498738436494	7.508333333333334
501.93007271044036	6.849333333333343
501.51025235573195	6.28
501.09041277821007	5.897666666666677
500.67055397655207	5.491000000000009
500.25067594943516	5.083333333333333
499.8307786955409	4.707666666666676
499.41086221354453	4.324333333333343
498.9909265021319	4.090333333333328
498.5709715599803	3.84
498.15099738576487	3.506333333333338
497.73100397816495	3.26600000000001
497.31099133586446	3.0523333333333236
496.89095945753843	2.812666666666676
496.4709083418663	2.71899999999999
496.050837987521	2.5116666666666667
495.6307483931907	2.4139999999999904
495.21063955754823	2.3280000000000047
494.790511479271	2.166999999999995
494.37036415703403	2.083000000000005
493.95019758952327	1.9766666666666666
493.53001177541165	1.9
493.1098067133765	1.909333333333343
492.68958240209287	1.7330000000000048
492.26933884024237	1.750666666666657
491.8490760265023	1.6753333333333285
491.42879395954776	1.609333333333343
491.0084926380517	1.5426666666666764
490.5881720607	1.4539999999999902
490.1678322261635	1.3653333333333284
489.7474731331217	1.3696666666666715
489.32709478024304	1.250666666666657
488.9066971662135	1.2553333333333285
488.48628028970614	1.211999999999995
488.0658441493982	1.1860000000000097
487.6453887439581	1.1086666666666618
487.224914072072	1.1783333333333332
486.8044201324106	1.146333333333338
486.38390692364896	1.0746666666666715
485.96337444446226	1.0889999999999902
485.5428226935299	1.059333333333343
485.1222516695248	1.0083333333333333
484.7016613711199	1.0083333333333333
484.28105179699037	0.9319999999999952
483.86042294581335	1.0266666666666666
483.43977481626627	0.9626666666666763
483.01910740701766	0.8123333333333236
482.59842071674257	0.7963333333333382
482.1777147441205	0.7976666666666764
481.75698948782224	0.7826666666666764
481.33624494652287	0.7913333333333382
480.91548111889534	0.75
480.4946980036104	0.7630000000000049
480.0738955993496	0.7773333333333237
479.65307390478165	0.7136666666666618
479.2322329185816	0.7589999999999903
478.81137263941804	0.6786666666666619
478.3904930659726	0.72
477.9695941969139	0.6919999999999952
477.5486760309148	0.7319999999999951
477.127738566644	0.7876666666666764
476.70678180278304	0.6426666666666764
476.28580573800053	0.6403333333333285
475.86481037096945	0.6119999999999951
475.44379570035835	0.6636666666666619
475.0227617248467	0.5886666666666618
474.6017084431009	0.5453333333333285
474.1806358537961	0.549333333333343
473.75954395560086	0.4846666666666715
473.3384327471903	0.5539999999999903
472.91730222723737	0.5833333333333334
472.4961523944085	0.6560000000000097
472.07498324737657	0.5839999999999903
471.6537947848168	0.5173333333333237
471.2325870053998	0.5273333333333237
470.81135990779217	0.4510000000000097
470.3901134906646	0.4660000000000097
469.9688477526965	0.3573333333333236
469.54756269254995	0.4289999999999903
469.12625830890016	0.5226666666666764
468.7049346004113	0.4913333333333382
468.28359156576283	0.42133333333333817
467.86222920361905	0.45
467.4408475126529	0.4563333333333382
467.0194464915286	0.44300000000000483
466.5980261389256	0.4646666666666715
466.176586453506	0.5043333333333431
465.75512743394273	0.43733333333332364
465.3336490789022	0.529333333333343
464.91215138705746	0.46066666666665695
464.490634357077	0.49033333333332846
464.0690979876294	0.4
463.647542277379	0.45666666666666667
463.22596722500305	0.45233333333332365
462.80437282916796	0.41199999999999515
462.3827590885402	0.35199999999999515
461.96112600178395	0.3983333333333333
461.5394735675766	0.41833333333333333
461.1178017845845	0.39866666666666184
460.69611065147194	0.365
460.2744001669097	0.45166666666666666
459.8526703295598	0.43
459.4309211380996	0.4646666666666715
459.00915259119125	0.4610000000000097
458.58736468750317	0.45699999999999513
458.1655574256997	0.3630000000000049
457.74373080445605	0.3536666666666618
457.321884822432	0.4216666666666667
456.9000194782984	0.365666666666657
456.47813477071736	0.3713333333333382
456.0562306983639	0.4023333333333236
455.634307259898	0.3333333333333333
455.2123644539904	0.3339999999999903
454.7904022793011	0.38866666666666183
454.36842073450293	0.3423333333333236
453.9464198182602	0.38166666666666665
453.5243995292416	0.3110000000000097
453.1023598661026	0.35766666666667635
452.6803008275226	0.40933333333334304
452.2582224121617	0.39100000000000973
451.83612461868404	0.4173333333333236
451.41400744575174	0.389333333333343
450.9918708920399	0.28566666666665697
450.56971495620627	0.31733333333332364
450.1475396369195	0.24066666666665695
449.72534493283945	0.2613333333333382
449.3031308426391	0.4083333333333333
448.88089736497835	0.25533333333332847
448.4586444985215	0.3460000000000097
448.03637224192846	0.25966666666667154
447.6140805938743	0.2110000000000097
447.19176955301896	0.33566666666665695
446.7694391180224	0.35766666666667635
446.347089287551	0.28766666666667634
445.9247200602713	0.24933333333334304
445.50233143484525	0.3296666666666715
445.079923409935	0.22766666666667637
444.6574959842027	0.25233333333332364
444.2350491563169	0.2689999999999903
443.8125829249397	0.26
443.390097288731	0.4083333333333333
442.9675922463529	0.27433333333334303
442.54506779647625	0.26666666666666666
442.12252393775657	0.3623333333333236
441.69996066885807	0.29133333333333816
441.277377988443	0.2613333333333382
440.85477589517325	0.2836666666666618
440.43215438771324	0.3446666666666715
440.00951346472505	0.26600000000000973
439.58685312487074	0.2939999999999903
439.16417336680587	0.2939999999999903
438.7414741892034	0.19066666666665696
438.31875559071676	0.3163333333333382
437.8960175700124	0.32266666666667637
437.4732601257437	0.305
437.05048325658146	0.3039999999999903
436.62768696118343	0.2823333333333236
436.2048712382074	0.370666666666657
435.7820360863154	0.3539999999999903
435.3591815041739	0.3536666666666618
434.9363074904384	0.2839999999999903
434.51341404377115	0.2823333333333236
434.09050116282765	0.2539999999999903
433.6675688462765	0.31
433.24461709277546	0.2639999999999903
432.8216459009802	0.29833333333333334
432.3986552695505	0.29266666666667634
431.9756451971529	0.35133333333333816
431.55261568244293	0.29266666666667634
431.12956672408274	0.46300000000000485
430.70649832072354	0.3410000000000097
430.28341047103396	0.39800000000000485
429.8603031736717	0.4789999999999903
429.43717642729246	0.3926666666666764
429.0140302305539	0.35133333333333816
428.5908645821203	0.41266666666667634
428.1676794806494	0.3263333333333382
427.74447492479686	0.37466666666667153
427.3212509132182	0.36
426.89800744458205	0.32466666666667154
426.4747445175375	0.27166666666666667
426.05146213074664	0.3436666666666618
425.6281602828629	0.3376666666666764
425.20483897255264	0.36
424.7814981984672	0.3926666666666764
424.3581379592665	0.3610000000000097
423.9347582536018	0.3863333333333382
423.5113590801394	0.45233333333332365
423.0879404375329	0.4136666666666618
422.66450232444	0.44300000000000483
422.24104473951405	0.5280000000000048
421.8175676814172	0.30533333333332846
421.39407114880504	0.4286666666666618
420.97055514033093	0.4489999999999903
420.54701965465495	0.4196666666666715
420.1234646904282	0.4289999999999903
419.6998902463128	0.3560000000000097
419.2762963209644	0.4153333333333285
418.8526829130364	0.3883333333333333
418.4290500211822	0.3546666666666715
418.00539764406386	0.45
417.5817257803349	0.4360000000000097
417.15803442864865	0.3233333333333333
416.7343235876586	0.3976666666666764
416.3105932560246	0.3663333333333382
415.8868434324023	0.3560000000000097
415.4630741154451	0.3763333333333382
415.03928530380216	0.4153333333333285
414.61547699613976	0.32233333333332365
414.1916491911049	0.38666666666666666
413.767801887351	0.49166666666666664
413.34393508353367	0.45866666666666184
412.9200487783128	0.41066666666665697
412.49614297033526	0.42699999999999516
412.0722176582611	0.4386666666666618
411.64827284073493	0.3736666666666618
411.22430851642116	0.39866666666666184
410.80032468396655	0.31666666666666665
410.376321342029	0.32300000000000484
409.9522984892553	0.3253333333333285
409.5282561243077	0.360666666666657
409.1041942458351	0.37533333333332847
408.6801128524889	0.3423333333333236
408.2560119429202	0.365
407.83189151578915	0.3786666666666618
407.40775156974246	0.34300000000000486
406.9835921034358	0.42266666666667635
406.5594131155161	0.3863333333333382
406.1352146046411	0.4039999999999903
405.7109965694642	0.38666666666666666
405.28675900863453	0.3473333333333236
404.86250192079893	0.27566666666665696
404.43822530461745	0.3436666666666618
404.01392915874123	0.38733333333332365
403.5896134818172	0.24333333333333335
403.1652782724945	0.3883333333333333
402.740923529433	0.48199999999999515
402.31654925127964	0.3289999999999903
401.8921554366857	0.2816666666666667
401.4677420843024	0.3596666666666715
401.0433091927745	0.34433333333334304
400.61885676076406	0.3060000000000097
400.1943847869137	0.3326666666666764
399.7698932698746	0.3310000000000097
399.345382208296	0.3466666666666667
398.9208516008334	0.26933333333334303
398.4963014461336	0.30966666666667153
398.0717317428458	0.3763333333333382
397.647142489617	0.4023333333333236
397.2225336851048	0.39933333333334303
396.797905327954	0.40300000000000485
396.3732574168138	0.4760000000000097
395.9485899503309	0.42333333333333334
395.52390292716103	0.4046666666666715
395.0991963459511	0.455
394.6744702053458	0.31300000000000483
394.2497245039943	0.3363333333333382
393.8249592405521	0.2563333333333382
393.40017441366183	0.38300000000000484
392.9753700219747	0.37833333333333335
392.5505460641355	0.33666666666666667
392.1257025387955	0.2889999999999903
391.70083944460373	0.31466666666667154
391.2759567802049	0.30533333333332846
390.8510545442461	0.3239999999999903
390.42613273537836	0.375
390.00119135225094	0.3869999999999951
389.57623039350636	0.42300000000000487
389.1512498577893	0.4103333333333285
388.72624974375765	0.4753333333333285
388.3012300500495	0.389333333333343
387.8761907753162	0.4766666666666667
387.45113191820036	0.36266666666667635
387.0260534773531	0.4436666666666618
386.60095545141934	0.4583333333333333
386.1758378390437	0.38866666666666183
385.7507006388731	0.4436666666666618
385.3255438495567	0.4483333333333333
384.90036746973703	0.45300000000000484
384.47517149806316	0.48266666666667635
384.0499559331755	0.4266666666666667
383.6247207737275	0.40433333333334304
383.1994660183596	0.3996666666666715
382.77419166571866	0.435666666666657
382.3488977144451	0.39
381.92358416319234	0.430666666666657
381.498251010603	0.2733333333333333
381.0728982553196	0.3989999999999903
380.6475258959869	0.39366666666666184
380.2221339312475	0.4173333333333236
379.7967223597549	0.4463333333333382
379.37129118014496	0.454333333333343
378.94584039106695	0.43333333333333335
378.5203699911569	0.2986666666666618
378.09487997907036	0.35699999999999515
377.6693703534434	0.40199999999999514
377.243841112923	0.4153333333333285
376.8182922561495	0.33
376.3927237817721	0.3786666666666618
375.96713568843103	0.3436666666666618
375.541527974769	0.2789999999999903
375.11590063942424	0.3433333333333333
374.6902536810523	0.3819999999999952
374.2645870982871	0.285
373.8389008897734	0.32800000000000484
373.41319505415163	0.3739999999999903
372.9874695900686	0.30833333333333335
372.561724496167	0.32733333333332365
372.1359597710851	0.35199999999999515
371.7101754134632	0.2953333333333285
371.2843714219504	0.4166666666666667
370.8585477951872	0.3646666666666715
370.43270453181174	0.2846666666666715
370.00684163046236	0.33
369.5809590897924	0.4153333333333285
369.1550569084336	0.3636666666666618
368.7291350850329	0.3876666666666764
368.30319361822427	0.41633333333333816
367.87723250665454	0.34199999999999514
367.4512517489663	0.38733333333332365
367.0252513437956	0.4160000000000097
366.5992312897829	0.4310000000000097
366.17319158557297	0.4076666666666764
365.747132229804	0.3413333333333382
365.32105322111636	0.36266666666667635
364.8949545581462	0.3473333333333236
364.46883623954045	0.39300000000000485
364.0426982639373	0.4310000000000097
363.616540629975	0.4939999999999903
363.19036333628964	0.4363333333333382
362.7641663815303	0.4389999999999903
362.3379497643287	0.4196666666666715
361.9117134833253	0.4483333333333333
361.4854575371626	0.4853333333333285
361.05918192447024	0.5203333333333284
360.6328866439016	0.4910000000000097
360.20657169408406	0.4796666666666715
359.7802370736624	0.48833333333333334
359.3538827812684	0.4846666666666715
358.92750881554895	0.4786666666666618
358.5011151751379	0.515666666666657
358.07470185867567	0.43800000000000483
357.6482688647919	0.435666666666657
357.22181619213774	0.39699999999999513
356.7953438393429	0.4603333333333285
356.3688518050455	0.3553333333333285
355.94234008788163	0.4789999999999903
355.51580868649387	0.42
355.0892575995162	0.4436666666666618
354.662686825589	0.5216666666666666
354.2360963633396	0.5193333333333431
353.8094862114171	0.4676666666666764
353.3828563684533	0.49466666666667153
352.95620683308425	0.5260000000000097
352.5295376039439	0.46800000000000486
352.1028486796747	0.4236666666666618
351.67614005890846	0.4563333333333382
351.24941174028345	0.445
350.8226637224314	0.4033333333333333
350.395896003997	0.4013333333333382
349.9691085836077	0.3610000000000097
349.5423014599039	0.39100000000000973
349.11547463151516	0.3960000000000097
348.6886280970863	0.44566666666665694
348.26176185524673	0.3610000000000097
347.8348759046305	0.3876666666666764
347.40797024387143	0.46066666666665695
346.9810448716122	0.5039999999999903
346.55409978648225	0.4786666666666618
346.12713498711554	0.3296666666666715
345.70015047214383	0.4023333333333236
345.2731462402119	0.355
344.8461222899449	0.4196666666666715
344.41907861998106	0.45699999999999513
343.9920152289479	0.43699999999999517
343.56493211548786	0.39933333333334303
343.1378292782306	0.4546666666666715
342.71070671581214	0.45366666666666183
342.2835644268599	0.43666666666666665
341.85640241001437	0.4816666666666667
341.42922066390713	0.48066666666665697
341.0020191871679	0.41933333333334305
340.5747979784326	0.47633333333333816
340.14755703633097	0.39566666666665695
339.7202963595011	0.4596666666666715
339.2930159465705	0.4663333333333382
338.86571579617737	0.48766666666667635
338.4383959069447	0.5163333333333382
338.0110562775131	0.5303333333333284
337.5836969065141	0.5353333333333284
337.15631779257734	0.5323333333333237
336.72891893433024	0.5963333333333382
336.30150033041315	0.4683333333333333
335.8740619794536	0.5003333333333285
335.44660388008316	0.4389999999999903
335.01912603093155	0.4746666666666715
334.59162843063257	0.40566666666665696
334.164111077818	0.4083333333333333
333.7365739711174	0.4280000000000049
333.3090171091582	0.38466666666667154
332.88144049057644	0.41266666666667634
332.4538441140017	0.46366666666666184
332.02622797806356	0.5313333333333382
331.59859208138937	0.35800000000000487
331.1709364226152	0.4913333333333382
330.7432610003664	0.4689999999999903
330.31556581327675	0.45
329.8878508599694	0.46800000000000486
329.46011613908246	0.48199999999999515
329.0323616492413	0.45699999999999513
328.6045873890776	0.5423333333333237
328.1767933572123	0.5010000000000097
327.7489795522879	0.5653333333333285
327.32114597292536	0.47766666666667634
326.89329261775424	0.5116666666666667
326.4654194853997	0.435666666666657
326.0375265745001	0.53
325.60961388367843	0.6086666666666618
325.1816814115642	0.535
324.75372915678065	0.5189999999999902
324.3257571179637	0.49766666666667636
323.8977652937386	0.5039999999999903
323.46975368273064	0.39366666666666184
323.0417222835672	0.4310000000000097
322.61367109488435	0.4296666666666715
322.18560011530076	0.465
321.75750934344825	0.49466666666667153
321.32939877795206	0.4239999999999903
320.9012684174352	0.4483333333333333
320.47311826053584	0.5003333333333285
320.0449483058729	0.61
319.6167585520736	0.595
319.18854899776323	0.5886666666666618
318.76031964157573	0.6143333333333431
318.332070482132	0.7203333333333285
317.9038015180594	0.6426666666666764
317.4755127479788	0.6469999999999951
317.04720417052425	0.6023333333333236
316.6188757843208	0.5713333333333381
316.1905275879894	0.5703333333333285
315.76215958015536	0.5463333333333382
315.3337717594525	0.6480000000000049
314.9053641244995	0.49966666666667153
314.4769366739217	0.5463333333333382
314.0484894063444	0.6380000000000049
313.6200223203948	0.5330000000000048
313.19153541469825	0.5680000000000048
312.7630286878778	0.6016666666666667
312.3345021385521	0.5313333333333382
311.9059557653574	0.59
311.4773895669123	0.6919999999999952
311.04880354184195	0.6360000000000097
310.6201976887631	0.6413333333333382
310.1915720063139	0.6273333333333236
309.76292649310653	0.6386666666666618
309.33426114777274	0.6639999999999903
308.90557596892484	0.7439999999999903
308.4768709551988	0.5880000000000049
308.04814610521345	0.7163333333333382
307.61940141759175	0.6836666666666619
307.1906368909525	0.7280000000000049
306.76185252392514	0.729333333333343
306.3330483151308	0.7336666666666618
305.9042242631923	0.7086666666666618
305.4753803667263	0.7513333333333382
305.0465166243624	0.7860000000000097
304.61763303472367	0.7406666666666569
304.1887295964288	0.7919999999999952
303.7598063080965	0.7889999999999903
303.3308631683563	0.690666666666657
302.90190017582705	0.7
302.4729173291296	0.6913333333333381
302.04391462688477	0.6926666666666764
301.61489206771347	0.8246666666666715
301.18584965024104	0.7319999999999951
300.7567873730861	0.7496666666666715
300.3277052348696	0.7903333333333284
299.89860323421027	0.8080000000000048
299.4694813697333	0.7966666666666666
299.04033964005737	0.8016666666666666
298.6111780438057	0.8706666666666569
298.18199657959036	0.914333333333343
297.752795246041	0.925
297.3235740417741	0.9373333333333236
296.8943329654107	0.9403333333333285
296.46507201556506	1.0933333333333333
296.0357911908646	0.995
295.6064904899281	0.985
295.17716991137206	1.055666666666657
294.7478294538131	1.0263333333333382
294.3184691158764	1.0139999999999902
293.8890888961806	1.0086666666666617
293.4596887933425	1.1066666666666667
293.03026880597844	0.9523333333333236
292.6008289327138	1.0119999999999951
292.1713691721628	0.9603333333333285
291.7418895229465	0.9710000000000097
291.312389983677	0.9860000000000096
290.8828705529796	1.0226666666666764
290.4533312294709	0.9439999999999903
290.02377201176955	0.84
289.59419289848563	0.9103333333333284
289.1645938882465	0.950666666666657
288.7349749796687	0.7913333333333382
288.3053361713668	0.9116666666666666
287.8756774619528	0.969333333333343
287.44599885005636	0.805
287.0163003342854	0.8469999999999952
286.5865819132608	0.6533333333333333
286.1568435855947	0.7713333333333382
285.7270853499102	0.7119999999999952
285.2973072048218	0.7386666666666618
284.8675091489438	0.720666666666657
284.4376911808905	0.7013333333333381
284.00785329928516	0.715666666666657
283.577995502742	0.7263333333333382
283.14811778987115	0.7719999999999951
282.7182201592914	0.7533333333333333
282.28830260962343	0.76
281.85836513947754	0.7639999999999904
281.42840774747015	0.7416666666666667
280.9984304322157	0.7393333333333431
280.5684331923285	0.6853333333333285
280.13841602642736	0.81
279.70837893312665	0.6826666666666764
279.2783219110408	0.6636666666666619
278.84824495877757	0.6873333333333236
278.41814807496235	0.7366666666666667
277.98803125820507	0.6580000000000048
277.557894507118	0.6916666666666667
277.12773782031337	0.7053333333333285
276.6975611964142	0.7313333333333382
276.26736463402625	0.6123333333333236
275.8371481317683	0.6523333333333237
275.4069116882459	0.6230000000000049
274.97665530208224	0.574333333333343
274.54637897188735	0.6510000000000097
274.11608269627345	0.550666666666657
273.68576647384845	0.670666666666657
273.2554303032375	0.674333333333343
272.82507418304425	0.6786666666666619
272.39469811188513	0.69
271.9643020883682	0.680666666666657
271.533886111112	0.7083333333333334
271.10345017872675	0.7716666666666666
270.67299428982454	0.7360000000000096
270.2425184430133	0.725
269.8120226369118	0.71
269.38150687013	0.6339999999999903
268.9509711412781	0.5313333333333382
268.52041544896383	0.5033333333333333
268.08983979180596	0.35300000000000487
267.65924416841244	0.43333333333333335
267.2286285773954	0.4823333333333236
266.7979930173607	0.4773333333333236
266.36733748692905	0.41566666666665697
265.9366619847041	0.2763333333333382
265.50596650929805	0.32266666666667637
265.07525105931876	0.319333333333343
264.64451563338287	0.30133333333333817
264.21376023009816	0.31266666666667636
263.78298484807476	0.29300000000000487
263.3521894859162	0.22133333333333818
262.9213741422434	0.19866666666666183
262.4905388156598	0.23733333333332363
262.0596835047756	0.14166666666666666
261.62880820819856	0.21733333333332364
261.1979129245432	0.125
260.7669976524172	0.11800000000000485
260.3360623904265	0.14233333333332363
259.90510713718317	0.1503333333333285
259.47413189128866	0.12800000000000486
259.04313665136385	0.15
258.6121214160123	0.1160000000000097
258.1810861838397	0.04533333333332848
257.75003095345176	0.08566666666665697
257.31895572346724	0.0560000000000097
256.8878604924875	0.035333333333328484
256.45674525912045	-0.08966666666667152
256.0256100219717	-0.04233333333332363
255.59445477965582	0.021000000000009702
255.1632795307762	-0.08133333333333818
254.73208427393865	-0.029666666666671518
254.300869007751	-0.026000000000009703
253.8696337308255	0.017666666666676368
253.4383784417657	-0.007333333333323632
253.0071031391773	-0.06733333333332363
252.57580782166383	-0.11133333333333818
252.1444924878419	-0.02666666666666667
251.71315713631068	-0.0560000000000097
251.28180176568023	-0.04733333333332363
250.85042637454976	0.008333333333333333
250.41903096153368	0.024666666666671517
249.9876155252377	-0.029666666666671518
249.55618006426315	0.02266666666667637
249.12472457721364	-0.0060000000000097016
248.69324906270137	0.02699999999999515
248.26175351933205	0.058999999999990296
247.83023794570707	0.06433333333334304
247.3987023404278	0.01800000000000485
246.96714670210864	0.009666666666671517
246.53557102935096	-0.02
246.10397532076047	-0.0439999999999903
245.67235957493423	0.005666666666656966
245.24072379048877	0.04033333333332848
244.8090679660212	-0.07766666666667636
244.37739210013714	-0.06
243.94569619143803	-0.05433333333334303
243.51398023853605	-0.0033333333333333335
243.0822442400283	-0.06533333333332848
242.65048819452264	-0.013666666666661815
242.2187121006139	0.04766666666667637
241.78691595691873	-0.024666666666671517
241.35509976203193	-0.07633333333333818
240.9232635145614	-0.02033333333332848
240.49140721310636	-0.0689999999999903
240.059530856266	-0.09199999999999516
239.62763444265474	-0.02300000000000485
239.1957179708696	-0.02800000000000485
238.76378143951197	0.019666666666671516
238.33182484718105	0.026333333333338184
237.89984819248693	-0.03166666666666667
237.46785147403094	0.03800000000000485
237.03583469041013	0.027666666666676366
236.6037978402259	0.0019999999999951493
236.1717409220883	0.008999999999990299
235.7396639345922	-0.03933333333334303
235.30756687634332	-0.04066666666665696
234.87544974593433	0.016666666666666666
234.44331254197968	0.0189999999999903
234.01115526307206	-0.03333333333333333
233.57897790781496	0.051333333333338185
233.1467804748055	-0.06066666666665697
232.7145629626515	-0.025666666666656967
232.28232536995006	0.029333333333343033
231.8500676953025	0.0310000000000097
231.41778993730375	0.033666666666661814
230.98549209456385	-0.006666666666666667
230.55317416567763	-0.004333333333343035
230.12083614924651	0.025333333333328482
229.68847804386536	-0.07566666666665696
229.2560998481399	0.02199999999999515
228.82370156066932	-0.013999999999990298
228.39128318005285	-0.00800000000000485
227.95884470488318	-0.035333333333328484
227.5263861337704	-0.006999999999995149
227.09390746530931	-0.050666666666656965
226.66140869809703	0.0460000000000097
226.22888983073057	-0.04066666666665696
225.79635086181347	-0.09733333333332363
225.36379178994494	-0.08566666666665697
224.93121261371985	0.019666666666671516
224.4986133317331	0.0033333333333333335
224.06599394259257	-0.09333333333333334
223.63335444489314	-0.06633333333333818
223.20069483722963	-0.09199999999999516
222.76801511819698	-0.0439999999999903
222.33531528640088	-0.07699999999999516
221.9025953404362	0.05199999999999515
221.4698552788978	-0.011000000000009702
221.0370951003849	-0.0160000000000097
220.6043148034924	0.017666666666676368
220.17151438682168	0.04233333333332363
219.73869384896756	-0.016666666666666666
219.30585318852715	0.013666666666661815
218.87299240409308	0.028666666666661816
218.440111494269	-0.07300000000000485
218.0072104576475	0.019666666666671516
217.5742892928257	-0.006333333333338184
217.1413479983941	-0.03199999999999515
216.70838657295846	0.11300000000000485
216.27540501510927	0.08800000000000485
215.8424033234436	0.013000000000004851
215.40938149655196	0.011666666666666667
214.97633953303793	-0.07433333333334304
214.5432774314942	-0.03699999999999515
214.11019519051567	0.02300000000000485
213.67709280869065	0.049333333333343034
213.24397028462707	0.020666666666656966
212.8108276169111	0.07
212.37766480413984	-0.029333333333343033
211.9444818449016	-0.06366666666666182
211.51127873780212	-0.04199999999999515
211.0780554814319	-0.030333333333328483
210.64481207438155	-0.03166666666666667
210.21154851524156	0.02199999999999515
209.77826480261763	-0.003999999999990299
209.34496093509603	0.10300000000000485
208.91163691127156	-0.025333333333328482
208.47829272973476	-0.035
208.0449283890849	-0.0010000000000097012
207.6115438879125	-0.02733333333332363
207.17813922481238	-0.01199999999999515
206.74471439836861	0.041666666666666664
206.31126940718693	-0.013333333333333334
205.87780424985567	-0.021666666666666667
