768.7678709118609	0.04666666666666667
768.3601795435875	0.07
767.9524697795084	0.07633333333333818
767.5447416183789	0.06966666666667151
767.1369950589522	0.12466666666667152
766.7292300999793	0.1760000000000097
766.321446740222	0.15766666666667636
765.9136449784291	0.11166666666666666
765.5058248133583	0.11733333333332363
765.0979862437583	0.05333333333333334
764.6901292683908	0.044333333333343036
764.2822538860049	0.052333333333323635
763.8743600953579	0.028999999999990297
763.4664478951966	0.10566666666665697
763.0585172842827	0.10633333333333818
762.6505682613673	0.10466666666667152
762.2426008252036	0.04466666666667152
761.8346149745404	0.10333333333333333
761.4266107081372	0.07133333333333819
761.0185880247452	0.1510000000000097
760.6105469231176	0.13766666666667637
760.202487402003	0.06533333333332848
759.7944094601592	-0.015333333333328482
759.3863130963391	-0.023666666666661815
758.9781983092939	0.012666666666676369
758.5700650977723	-0.018666666666661814
758.1619134605319	0.011333333333338184
757.7537433963257	-0.0019999999999951493
757.3455549039006	-0.0310000000000097
756.9373479820074	0.1439999999999903
756.529122629406	0.13199999999999515
756.1208788448427	0.07300000000000485
755.7126166270709	0.18133333333333818
755.3043359748374	0.03233333333332363
754.8960368869017	0.1260000000000097
754.4877193620104	0.0639999999999903
754.0793833989146	0.12366666666666182
753.671028996363	-0.01199999999999515
753.2626561531134	0.026000000000009703
752.8542648679122	0.03233333333332363
752.4458551395104	0.07466666666667152
752.0374269666613	0.11
751.6289803481072	0.11
751.2205152826077	0.09733333333332363
750.8120317689096	0.16699999999999515
750.4035298057637	0.17766666666667638
749.9950093919146	0.13366666666666183
749.586470526122	0.09933333333334303
749.1779132071304	0.05366666666666182
748.7693374336906	0.11333333333333333
748.3607432045474	0.10233333333332363
747.9521305184559	0.095
747.5434993741673	0.011333333333338184
747.134849770426	0.11733333333332363
746.7261817059784	0.09533333333332848
746.3174951795825	-0.034333333333343034
745.9087901899825	-0.02
745.500066735925	0.04666666666666667
745.091324816159	0.05466666666667152
744.6825644294398	-0.025666666666656967
744.2737855745097	0.1060000000000097
743.8649882501174	-0.06866666666666181
743.4561724550099	0.07699999999999516
743.0473381879422	-0.008333333333333333
742.6384854476568	0.04766666666667637
742.2296142329003	0.11433333333334303
741.8207245424215	0.08866666666666181
741.4118163749715	0.08133333333333818
741.002889729297	0.08
740.5939446041443	0.04733333333332363
740.1849809982541	0.04833333333333333
739.7759989103856	0.09033333333332848
739.3669983392814	0.09366666666666182
738.957979283686	0.07466666666667152
738.5489417423437	0.13199999999999515
738.13988571401	0.145
737.730811197425	-0.02199999999999515
737.3217181913398	0.1360000000000097
736.9126066944921	0.1189999999999903
736.5034767056397	0.1189999999999903
736.0943282235205	0.06833333333333333
735.6851612468854	0.05800000000000485
735.2759757744748	0.043333333333333335
734.8667718050416	0.0789999999999903
734.4575493373283	0.1289999999999903
734.0483083700792	0.16066666666665697
733.6390489020412	0.10333333333333333
733.2297709319565	0.14266666666667638
732.8204744585761	0.1389999999999903
732.4111594806445	0.1189999999999903
732.0018259969019	0.08866666666666181
731.5924740060949	0.050333333333328484
731.1831035069702	0.14233333333332363
730.7737144982744	0.0360000000000097
730.3643069787478	0.11933333333334303
729.9548809471348	0.03800000000000485
729.5454364021842	-0.021333333333338183
729.1359733426384	0.08333333333333333
728.7264917672396	0.07699999999999516
728.3169916747303	0.09566666666665696
727.9074730638592	0.11966666666667151
727.4979359333709	0.165
727.0883802820032	0.07333333333333333
726.6788061085008	0.01
726.2692134116146	0.13766666666667637
725.8596021900805	0.08
725.449972442645	0.11
725.0403241680441	-0.01800000000000485
724.630657365033	0.12300000000000486
724.2209720323476	-0.015333333333328482
723.8112681687303	0.03199999999999515
723.4015457729232	0.09366666666666182
722.9918048436731	0.006999999999995149
722.5820453797202	0.04466666666667152
722.1722673798067	-0.06066666666665697
721.7624708426707	0.01199999999999515
721.3526557670632	0.03166666666666667
720.94282215172	-0.059333333333343036
720.5329699953855	0.00800000000000485
720.1230992967957	0.07766666666667636
719.7132100547013	0.03199999999999515
719.3033022678385	0.013333333333333334
718.8933759349494	0.06666666666666667
718.4834310547741	0.06433333333334304
718.0734676260573	0.043000000000004854
717.6634856475368	0.024333333333343036
717.2534851179572	0.027666666666676366
716.8434660360522	0.12166666666666667
716.4334284005727	-0.002666666666676368
716.0233722102523	-0.005666666666656966
715.6132974638334	0.10800000000000486
715.2032041600562	0.08300000000000485
714.7930922976565	0.06800000000000485
714.3829618753853	0.15233333333332363
713.9728128919741	0.10233333333332363
713.562645346165	0.10199999999999515
713.1524592366941	0.06733333333332363
712.7422545623102	0.03666666666666667
712.3320313217469	0.03233333333332363
711.9217895137442	0.02800000000000485
711.5115291370382	0.07333333333333333
711.1012501903754	0.11766666666667637
710.6909526724916	0.0939999999999903
710.2806365821249	0.15666666666666668
709.870301918011	0.11966666666667151
709.4599486788967	0.10133333333333819
709.0495768635155	0.12166666666666667
708.6391864706077	0.08600000000000971
708.228777498909	0.16966666666667152
707.8183499471618	0.10533333333332848
707.4079038141018	0.15333333333333332
706.9974390984672	0.09866666666666181
706.5869557989937	0.12033333333332848
706.1764539144258	0.04533333333332848
705.7659334434971	0.16300000000000486
705.3553943849456	0.1386666666666618
704.9448367375052	0.11633333333333819
704.5342604999221	0.095
704.123665670926	0.11199999999999515
703.7130522492591	0.17199999999999516
703.3024202336507	0.036333333333338186
702.8917696228474	0.12033333333332848
702.4811004155808	0.051333333333338185
702.0704126105888	0.08333333333333333
701.6597062066053	0.15133333333333818
701.2489812023722	0.15366666666666182
700.8382375966235	0.045
700.4274753880926	0.0960000000000097
700.0166945755177	0.10233333333332363
699.6058951576366	0.03666666666666667
699.1950771331854	0.10366666666666181
698.7842405008996	0.09066666666665696
698.3733852595066	0.04699999999999515
697.962511407755	0.002666666666676368
697.5516189443744	0.1360000000000097
697.1407078681002	0.0539999999999903
696.7297781776643	0.1260000000000097
696.3188298718089	0.06733333333332363
695.9078629492653	0.05800000000000485
695.4968774087696	0.12133333333333818
695.0858732490532	0.1253333333333285
694.6748504688518	0.14066666666665698
694.2638090669034	0.03699999999999515
693.8527490419395	0.14466666666667152
693.4416703926984	0.09033333333332848
693.0305731179045	0.03800000000000485
692.6194572163027	0.14699999999999516
692.2083226866246	0.17566666666665698
691.7971695276012	-0.013333333333333334
691.3859977379644	0.06066666666665697
690.9748073164542	0.023333333333333334
690.563598261802	0.07133333333333819
690.1523705727373	0.08366666666666181
689.7411242479958	0.04866666666666181
689.3298592863133	0.1189999999999903
688.9185756864193	0.06766666666667637
688.5072734470516	0.21266666666667636
688.095952566933	0.10466666666667152
687.6846130448081	0.09233333333332364
687.273254879404	0.12866666666666182
686.8618780694522	0.12833333333333333
686.4504826136841	0.0910000000000097
686.0390685108379	0.12733333333332364
685.6276357596405	0.14233333333332363
685.216184358828	0.1363333333333382
684.804714307125	0.21
684.3932256032718	0.16433333333334305
683.981718245998	0.12766666666667636
683.5701922340304	0.15633333333333818
683.1586475661029	0.10733333333332364
682.747084240951	0.051333333333338185
682.3355022573022	0.08699999999999515
681.9239016138878	0.10466666666667152
681.5122823094371	0.0539999999999903
681.100644342686	0.1339999999999903
680.6889877123616	0.2260000000000097
680.2773124171954	0.23166666666666666
679.8656184559145	0.14666666666666667
679.4539058272569	0.3139999999999903
679.0421745299477	0.20666666666666667
678.6304245627183	0.264333333333343
678.2186559242936	0.14566666666665695
677.8068686134138	0.1739999999999903
677.395062628804	0.1713333333333382
676.9832379691933	0.17733333333332363
676.5713946333069	0.07466666666667152
676.1595326198826	0.18866666666666182
675.7476519276477	0.11066666666665696
675.3357525553292	0.21800000000000486
674.9238345016566	0.07199999999999515
674.5118977653547	0.145
674.0999423451638	0.09666666666666666
673.6879682398022	0.08566666666665697
673.2759754480059	0.1803333333333285
672.8639639684933	0.20800000000000485
672.4519338000044	0.24433333333334303
672.0398849412645	0.14066666666665698
671.6278173909984	0.16066666666665697
671.2157311479332	0.18833333333333332
670.8036262108026	0.14533333333332848
670.3915025783316	0.15
669.9793602492473	0.1760000000000097
669.5671992222748	0.1789999999999903
669.1550194961476	0.235
668.7428210695929	0.1960000000000097
668.3306039413335	0.27699999999999514
667.9183681100944	0.21
667.5061135746137	0.19966666666667152
667.0938403336097	0.11833333333333333
666.6815483858096	0.19266666666667637
666.2692377299405	0.19
665.856908364734	0.18699999999999514
665.4445602889106	0.19800000000000484
665.0321935011997	0.22300000000000486
664.6198080003242	0.1713333333333382
664.2074037850176	0.1989999999999903
663.7949808539984	0.08266666666667637
663.3825392059981	0.0960000000000097
662.9700788397353	0.0660000000000097
662.5575997539434	0.13833333333333334
662.1451019473432	0.12199999999999515
661.732585418664	0.23533333333332848
661.3200501666242	0.2336666666666618
660.9074961899598	0.18666666666666668
660.494923487387	0.19266666666667637
660.0823320576351	0.22699999999999515
659.6697218994246	0.21566666666665696
659.2570930114873	0.18733333333332364
658.8444453925414	0.2610000000000097
658.4317790413164	0.21
658.0190939565284	0.22699999999999515
657.6063901369134	0.11066666666665696
657.1936675811899	0.17566666666665698
656.7809262880805	0.2139999999999903
656.3681662563105	0.13466666666667151
655.9553874846001	0.19066666666665696
655.5425899716812	0.17800000000000485
655.1297737162741	0.1610000000000097
654.7169387170998	0.021000000000009702
654.3040849728786	0.0910000000000097
653.8912124823422	0.12633333333333818
653.4783212442112	0.05266666666667637
653.0654112572063	0.19666666666666666
652.6524825200479	0.13666666666666666
652.2395350314655	0.1436666666666618
651.8265687901776	0.20933333333334303
651.4135837949091	0.1139999999999903
651.0005800443785	0.085
650.5875575373129	0.06633333333333818
650.1745162724332	0.05199999999999515
649.7614562484596	0.1610000000000097
649.348377464113	0.13233333333332364
648.9352799181206	0.11666666666666667
648.5221636092008	0.19766666666667637
648.1090285360741	0.2746666666666715
647.6958746974614	0.14833333333333334
647.2827020920896	0.23433333333334302
646.8695107186775	0.18866666666666182
646.4563005759431	0.15199999999999514
646.0430716626075	0.13666666666666666
645.6298239773976	0.24933333333334304
645.2165575190319	0.1363333333333382
644.8032722862267	0.0839999999999903
644.3899682777028	0.07833333333333334
643.9766454921893	0.07333333333333333
643.5633039283982	0.14233333333332363
643.1499435850546	0.1760000000000097
642.7365644608705	0.16233333333332364
642.3231665545771	0.11233333333332363
641.9097498648889	0.10433333333334303
641.4963143905242	0.1253333333333285
641.0828601302013	0.09166666666666666
640.6693870826476	0.18133333333333818
640.2558952465771	0.1410000000000097
639.8423846207105	0.22066666666665696
639.4288552037599	0.22300000000000486
639.0153069944565	0.17300000000000484
638.6017399915146	0.18466666666667153
638.1881541936483	0.18333333333333332
637.7745495995827	0.11333333333333333
637.3609262080296	0.2086666666666618
636.9472840177161	0.3036666666666618
636.5336230273545	0.18833333333333332
636.119943235665	0.1989999999999903
635.7062446413621	0.11
635.2925272431705	0.04233333333332363
634.8787910398067	0.10166666666666667
634.4650360299848	0.09699999999999515
634.0512622124211	0.0560000000000097
633.6374695858384	0.1039999999999903
633.2236581489551	0.17800000000000485
632.8098279004832	0.1803333333333285
632.3959788391412	0.1963333333333382
631.9821109636476	0.16533333333332847
631.5682242727231	0.11699999999999515
631.1543187650774	0.13199999999999515
630.7403944394289	0.16766666666667637
630.3264512944984	0.18066666666665696
629.9124893289999	0.15133333333333818
629.4985085416498	0.2196666666666715
629.08450893116	0.21733333333332364
628.6704904962556	0.11833333333333333
628.2564532356485	0.11066666666665696
627.8423971480548	0.1413333333333382
627.4283222321847	0.1589999999999903
627.0142284867629	0.15866666666666182
626.6001159105014	0.10933333333334304
626.1859845021144	0.17333333333333334
625.771834260316	0.2086666666666618
625.3576651838268	0.17266666666667638
624.9434772713589	0.27066666666665695
624.5292705216264	0.19766666666667637
624.1150449333433	0.19
623.7008005052281	0.20699999999999516
623.2865372359929	0.11566666666665697
622.872255124354	0.095
622.457954169021	0.13800000000000484
622.0436343687147	0.1589999999999903
621.629295722145	0.0560000000000097
621.2149382280302	0.13066666666665697
620.8005618850757	0.20233333333332362
620.3861666920067	0.25333333333333335
619.9717526475306	0.2289999999999903
619.5573197503596	0.2663333333333382
619.1428679992077	0.28800000000000486
618.7283973927935	0.2796666666666715
618.3139079298264	0.1739999999999903
617.8993996090189	0.14666666666666667
617.4848724290849	0.1539999999999903
617.0703263887341	0.32266666666667637
616.6557614866873	0.18866666666666182
616.2411777216521	0.33
615.8265750923404	0.2610000000000097
615.411953597462	0.295
614.9973132357354	0.2646666666666715
614.5826540058705	0.3169999999999952
614.1679759065792	0.3030000000000049
613.7532789365712	0.31033333333332846
613.3385630945629	0.29633333333333817
612.9238283792641	0.34
612.5090747893845	0.3080000000000048
612.0943023236341	0.31233333333332364
611.6795109807312	0.3433333333333333
611.2647007593813	0.24
610.8498716582986	0.23433333333334302
610.4350236761907	0.17666666666666667
610.0201568117717	0.1646666666666715
609.6052710637535	0.2210000000000097
609.1903664308418	0.25833333333333336
608.7754429117483	0.22
608.3605005051894	0.27566666666665696
607.9455392098686	0.19199999999999515
607.5305590245018	0.15566666666665696
607.1155599477905	0.1289999999999903
606.700541978453	0.0760000000000097
606.2855051151969	0.10833333333333334
605.8704493567299	0.2039999999999903
605.4553747017618	0.17733333333332363
605.0402811490067	0.09633333333333818
604.6251686971679	0.16699999999999515
604.2100373449596	0.1989999999999903
603.794887091085	0.13533333333332848
603.3797179342605	0.1296666666666715
602.9645298731892	0.1436666666666618
602.5493229065834	0.14266666666667638
602.1340970331482	0.1510000000000097
601.7188522515959	0.22566666666665697
601.3035885606339	0.17766666666667638
600.8883059589721	0.14199999999999516
600.4730044453094	0.14966666666667153
600.0576840183686	0.10966666666667152
599.6423446768466	0.18333333333333332
599.2269864194574	0.17566666666665698
598.8116092449044	0.2153333333333285
598.3962131518952	0.23300000000000484
597.9807981391417	0.24199999999999514
597.5653642053495	0.12733333333332364
597.1499113492239	0.12133333333333818
596.7344395694705	0.18
596.3189488648012	0.155
595.9034392339214	0.16533333333332847
595.4879106755388	0.11266666666667637
595.0723631883525	0.15600000000000971
594.6567967710808	0.1639999999999903
594.2412114224227	0.1660000000000097
593.825607141088	0.14233333333332363
593.4099839257777	0.08466666666667151
592.9943417752039	0.17166666666666666
592.57868068807	0.16866666666666183
592.1630006630813	0.0660000000000097
591.7473016989411	0.0939999999999903
591.3315837943614	0.07733333333332364
590.9158469480456	0.19366666666666182
590.5000911586968	0.11066666666665696
590.0843164250163	0.017666666666676368
589.6685227457202	0.08300000000000485
589.2527101195077	0.10466666666667152
588.8368785450818	0.17699999999999516
588.4210280211462	0.15933333333334304
588.0051585464104	0.09466666666667152
587.5892701195799	0.1660000000000097
587.1733627393536	0.22566666666665697
586.7574364044372	0.14
586.341491113538	0.1736666666666618
585.9255268653596	0.14766666666667635
585.5095436586031	0.1363333333333382
585.0935414919694	0.1510000000000097
584.6775203641728	0.12633333333333818
584.26148027391	0.1460000000000097
583.8454212198844	0.12733333333332364
583.4293432007971	0.1910000000000097
583.0132462153579	0.23533333333332848
582.5971302622678	0.2916666666666667
582.1809953402259	0.16266666666667637
581.7648414479354	0.13666666666666666
581.3486685841062	0.033666666666661814
580.9324767474351	0.007333333333323632
580.5162659366252	0.1160000000000097
580.1000361503757	0.08866666666666181
579.6837873873984	0.14300000000000485
579.267519646388	0.17266666666667638
578.8512329260478	0.18066666666665696
578.4349272250832	0.08633333333333819
578.0186025421867	0.20666666666666667
577.6022588760703	0.12266666666667637
577.1858962254329	0.14066666666665698
576.7695145889734	0.1853333333333285
576.3531139653909	0.18466666666667153
575.9366943533951	0.14633333333333817
575.5202557516828	0.04666666666666667
575.1037981589529	0.125
574.6873215739046	0.11766666666667637
574.2708259952475	0.1210000000000097
573.854311421674	0.08566666666665697
573.4377778518897	0.0389999999999903
573.0212252845891	0.042666666666676366
572.6046537184778	0.06233333333332363
572.1880631522547	0.08266666666667637
571.7714535846209	0.07966666666667152
571.3548250142687	0.165
570.9381774399104	0.18566666666665696
570.5215108602383	0.12466666666667152
570.1048252739535	0.16333333333333333
569.6881206797506	0.10433333333334303
569.2713970763372	0.019666666666671516
568.854654462408	0.07199999999999515
568.4378928366642	0.08433333333334303
568.0211121978002	0.06699999999999515
567.6043125445195	0.06133333333333819
567.187493875521	0.1689999999999903
566.7706561895014	0.12833333333333333
566.3537994851577	0.1
565.9369237611908	0.17033333333332848
565.5200290162996	0.09733333333332363
565.1031152491812	0.1710000000000097
564.6861824585301	0.1436666666666618
564.2692306430516	0.1853333333333285
563.8522598014383	0.18833333333333332
563.4352699323913	0.2613333333333382
563.0182610345986	0.2936666666666618
562.6012331067724	0.14699999999999516
562.1841861476007	0.205
561.7671201557823	0.16333333333333333
561.3500351300121	0.19066666666665696
560.9329310689911	0.3310000000000097
560.515807971416	0.2560000000000097
560.0986658359838	0.21800000000000486
559.6815046613867	0.24133333333333817
559.2643244463217	0.16133333333333819
558.847125189492	0.1510000000000097
558.4299068895878	0.17800000000000485
558.012669545306	0.23533333333332848
557.5954131553412	0.2946666666666715
557.1781377183946	0.2733333333333333
556.7608432331607	0.3546666666666715
556.343529698332	0.2936666666666618
555.926197112601	0.33800000000000485
555.5088454746709	0.24766666666667636
555.0914747832342	0.23566666666665698
554.6740850369855	0.2960000000000097
554.2566762346152	0.31800000000000483
553.8392483748285	0.2110000000000097
553.4218014563138	0.33666666666666667
553.0043354777655	0.255
552.5868504378763	0.2846666666666715
552.1693463353471	0.29266666666667634
551.7518231688704	0.21699999999999514
551.3342809371366	0.39800000000000485
550.91671963884	0.3080000000000048
550.49913927268	0.3169999999999952
550.0815398373467	0.3819999999999952
549.6639213315347	0.3426666666666764
549.2462837539342	0.2953333333333285
548.8286271032442	0.34933333333334304
548.4109513781551	0.305
547.9932565773614	0.27166666666666667
547.5755426995535	0.35333333333333333
547.1578097434281	0.37800000000000483
546.7400577076776	0.305
546.3222865909923	0.33199999999999513
545.9044963920649	0.38566666666665694
545.4866871095918	0.34066666666665696
545.0688587422615	0.33300000000000485
544.6510112887704	0.4186666666666618
544.2331447478026	0.374333333333343
543.8152591180612	0.25966666666667154
543.39735439823	0.4286666666666618
542.979430587006	0.325
542.5614876830728	0.44966666666667154
542.1435256851336	0.4336666666666618
541.7255445918723	0.5039999999999903
541.3075444019836	0.48433333333334305
540.8895251141511	0.45699999999999513
540.471486727076	0.43533333333332846
540.0534292394465	0.5193333333333431
539.6353526499506	0.4336666666666618
539.217256957283	0.5680000000000048
538.7991421601253	0.47300000000000486
538.3810082571806	0.49733333333332364
537.962855247133	0.7019999999999952
537.5446831286725	0.6680000000000048
537.1264919004875	0.6146666666666715
536.7082815612724	0.6883333333333334
536.2900521097155	0.6576666666666764
535.871803544509	0.6660000000000097
535.4535358643325	0.6160000000000097
535.0352490678893	0.6786666666666619
534.6169431538631	0.6239999999999903
534.19861812094	0.7176666666666763
533.78027396781	0.7953333333333285
533.361910693168	0.7510000000000097
532.9435282956977	0.8263333333333381
532.5251267740915	0.8089999999999903
532.1067061270311	0.8176666666666764
531.6882663532132	0.8496666666666716
531.2698074513237	0.9533333333333334
530.8513294200487	0.9216666666666666
530.4328322580762	0.9756666666666569
530.0143159641009	0.9660000000000097
529.5957805368043	1.0030000000000048
529.1772259748768	1.078000000000005
528.7586522770022	1.0843333333333431
528.3400594418729	1.0823333333333236
527.9214474681769	1.2496666666666716
527.5028163546002	1.3036666666666619
527.0841660998245	1.3223333333333236
526.6654967025466	1.4103333333333286
526.2468081614481	1.5383333333333333
525.8281004752192	1.56
525.4093736425393	1.7596666666666716
524.9906276621032	1.9636666666666618
524.5718625325945	1.9469999999999952
524.1530782526993	2.2003333333333286
523.7342748211013	2.3196666666666714
523.3154522364929	2.528000000000005
522.896610497558	2.8003333333333287
522.4777496029803	2.9343333333333432
522.0588695514436	3.2310000000000096
521.6399703416404	3.549333333333343
521.2210519722521	4.0046666666666715
520.8021144419671	4.498333333333333
520.3831577494668	4.7869999999999955
519.9641818934351	5.435
519.5451868725623	6.191999999999995
519.1261726855342	6.872666666666676
518.7071393310304	7.8056666666666565
518.2880868077347	8.73
517.8690151143393	10.026666666666667
517.449924249526	11.577333333333323
517.0308142119765	13.495
516.6116850003721	15.383333333333333
516.1925366134055	17.32366666666666
515.7733690497562	19.653333333333332
515.3541823081079	22.015333333333327
514.934976387142	24.046666666666667
514.5157512855491	25.572333333333322
514.0965070020062	26.58899999999999
513.6772435352017	26.783999999999992
513.2579608838126	26.030333333333328
512.8386590465294	24.940666666666658
512.4193380220314	23.443999999999992
511.99999780900464	21.332333333333324
511.580638406122	19.174333333333344
511.1612598120781	17.11600000000001
510.7418620255524	15.110333333333328
510.3224450452243	13.111333333333338
509.9030088697755	11.756999999999994
509.48355349789404	10.076666666666666
509.06407892825723	8.851333333333338
508.6445851595488	7.765
508.22507219044604	6.990333333333329
507.8055400196393	6.312666666666677
507.3859886458058	5.610666666666657
506.96641806762716	5.099333333333343
506.5468282837806	4.725333333333328
506.12721929295435	4.2036666666666616
505.7075910938277	3.9483333333333333
505.2879436850803	3.5026666666666766
504.8682770653892	3.2416666666666667
504.4485912334448	3.0646666666666715
504.02888618792	2.863000000000005
503.6091619274987	2.6010000000000097
503.1894184508558	2.556999999999995
502.76965575668174	2.3369999999999953
502.3498738436494	2.2066666666666666
501.93007271044036	1.9903333333333284
501.51025235573195	2.0073333333333236
501.09041277821007	1.7869999999999953
500.67055397655207	1.6086666666666618
500.25067594943516	1.6410000000000098
499.8307786955409	1.5886666666666618
499.41086221354453	1.4736666666666618
498.9909265021319	1.4460000000000097
498.5709715599803	1.444333333333343
498.15099738576487	1.316999999999995
497.73100397816495	1.335
497.31099133586446	1.3039999999999903
496.89095945753843	1.235
496.4709083418663	1.1333333333333333
496.050837987521	1.124333333333343
495.6307483931907	1.140666666666657
495.21063955754823	1.0719999999999952
494.790511479271	1.0439999999999903
494.37036415703403	0.8646666666666715
493.95019758952327	0.8739999999999903
493.53001177541165	0.9239999999999903
493.1098067133765	0.9719999999999952
492.68958240209287	0.9069999999999951
492.26933884024237	0.8763333333333382
491.8490760265023	0.8380000000000049
491.42879395954776	0.7896666666666715
491.0084926380517	0.7839999999999903
490.5881720607	0.7553333333333285
490.1678322261635	0.7253333333333285
489.7474731331217	0.715
489.32709478024304	0.724333333333343
488.9066971662135	0.6439999999999902
488.48628028970614	0.6280000000000049
488.0658441493982	0.5869999999999952
487.6453887439581	0.5146666666666715
487.224914072072	0.6086666666666618
486.8044201324106	0.6256666666666569
486.38390692364896	0.4513333333333382
485.96337444446226	0.5463333333333382
485.5428226935299	0.5813333333333381
485.1222516695248	0.5976666666666763
484.7016613711199	0.5776666666666763
484.28105179699037	0.5196666666666715
483.86042294581335	0.4689999999999903
483.43977481626627	0.5760000000000097
483.01910740701766	0.4803333333333285
482.59842071674257	0.5160000000000097
482.1777147441205	0.5010000000000097
481.75698948782224	0.5510000000000097
481.33624494652287	0.6046666666666716
480.91548111889534	0.47199999999999515
480.4946980036104	0.5130000000000049
480.0738955993496	0.4339999999999903
479.65307390478165	0.5133333333333333
479.2322329185816	0.4560000000000097
478.81137263941804	0.4560000000000097
478.3904930659726	0.4060000000000097
477.9695941969139	0.3836666666666618
477.5486760309148	0.41433333333334305
477.127738566644	0.3353333333333285
476.70678180278304	0.48300000000000487
476.28580573800053	0.4710000000000097
475.86481037096945	0.42833333333333334
475.44379570035835	0.3710000000000097
475.0227617248467	0.4653333333333285
474.6017084431009	0.395
474.1806358537961	0.33199999999999513
473.75954395560086	0.3896666666666715
473.3384327471903	0.3596666666666715
472.91730222723737	0.3713333333333382
472.4961523944085	0.3739999999999903
472.07498324737657	0.4003333333333285
471.6537947848168	0.3376666666666764
471.2325870053998	0.36133333333333817
470.81135990779217	0.3110000000000097
470.3901134906646	0.31166666666666665
469.9688477526965	0.3736666666666618
469.54756269254995	0.41066666666665697
469.12625830890016	0.37666666666666665
468.7049346004113	0.4103333333333285
468.28359156576283	0.36333333333333334
467.86222920361905	0.35899999999999027
467.4408475126529	0.35199999999999515
467.0194464915286	0.19800000000000484
466.5980261389256	0.22766666666667637
466.176586453506	0.2496666666666715
465.75512743394273	0.2873333333333236
465.3336490789022	0.25300000000000483
464.91215138705746	0.23433333333334302
464.490634357077	0.315
464.0690979876294	0.26566666666665695
463.647542277379	0.27366666666666184
463.22596722500305	0.3016666666666667
462.80437282916796	0.29433333333334305
462.3827590885402	0.15266666666667636
461.96112600178395	0.2013333333333382
461.5394735675766	0.21633333333333818
461.1178017845845	0.235
460.69611065147194	0.2060000000000097
460.2744001669097	0.25533333333332847
459.8526703295598	0.27066666666665695
459.4309211380996	0.15766666666667636
459.00915259119125	0.265
458.58736468750317	0.2626666666666764
458.1655574256997	0.33800000000000485
457.74373080445605	0.24233333333332363
457.321884822432	0.27566666666665696
456.9000194782984	0.22300000000000486
456.47813477071736	0.2633333333333333
456.0562306983639	0.21166666666666667
455.634307259898	0.2336666666666618
455.2123644539904	0.2610000000000097
454.7904022793011	0.2873333333333236
454.36842073450293	0.23933333333334303
453.9464198182602	0.1786666666666618
453.5243995292416	0.2973333333333236
453.1023598661026	0.225
452.6803008275226	0.3060000000000097
452.2582224121617	0.2889999999999903
451.83612461868404	0.28433333333334304
451.41400744575174	0.21866666666666182
450.9918708920399	0.23433333333334302
450.56971495620627	0.20733333333332363
450.1475396369195	0.2539999999999903
449.72534493283945	0.20166666666666666
449.3031308426391	0.1360000000000097
448.88089736497835	0.19
448.4586444985215	0.20766666666667638
448.03637224192846	0.1610000000000097
447.6140805938743	0.2389999999999903
447.19176955301896	0.20800000000000485
446.7694391180224	0.2703333333333285
446.347089287551	0.19766666666667637
445.9247200602713	0.20733333333332363
445.50233143484525	0.35300000000000487
445.079923409935	0.2519999999999952
444.6574959842027	0.29266666666667634
444.2350491563169	0.25033333333332847
443.8125829249397	0.21366666666666181
443.390097288731	0.23066666666665697
442.9675922463529	0.17333333333333334
442.54506779647625	0.1789999999999903
442.12252393775657	0.19199999999999515
441.69996066885807	0.21466666666667153
441.277377988443	0.23233333333332362
440.85477589517325	0.2439999999999903
440.43215438771324	0.2453333333333285
440.00951346472505	0.2889999999999903
439.58685312487074	0.21266666666667636
439.16417336680587	0.2569999999999952
438.7414741892034	0.2389999999999903
438.31875559071676	0.26566666666665695
437.8960175700124	0.24133333333333817
437.4732601257437	0.32866666666666183
437.05048325658146	0.2786666666666618
436.62768696118343	0.29
436.2048712382074	0.2089999999999903
435.7820360863154	0.2160000000000097
435.3591815041739	0.18266666666667636
434.9363074904384	0.314333333333343
434.51341404377115	0.22300000000000486
434.09050116282765	0.27433333333334303
433.6675688462765	0.28766666666667634
433.24461709277546	0.2953333333333285
432.8216459009802	0.3360000000000097
432.3986552695505	0.29833333333333334
431.9756451971529	0.27166666666666667
431.55261568244293	0.22866666666666183
431.12956672408274	0.35633333333333816
430.70649832072354	0.2986666666666618
430.28341047103396	0.345
429.8603031736717	0.30766666666667636
429.43717642729246	0.3853333333333285
429.0140302305539	0.38033333333332847
428.5908645821203	0.37533333333332847
428.1676794806494	0.3616666666666667
427.74447492479686	0.35433333333334305
427.3212509132182	0.43233333333332363
426.89800744458205	0.375666666666657
426.4747445175375	0.34300000000000486
426.05146213074664	0.3466666666666667
425.6281602828629	0.3573333333333236
425.20483897255264	0.32233333333332365
424.7814981984672	0.22666666666666666
424.3581379592665	0.2783333333333333
423.9347582536018	0.2936666666666618
423.5113590801394	0.33066666666665695
423.0879404375329	0.34199999999999514
422.66450232444	0.32233333333332365
422.24104473951405	0.46800000000000486
421.8175676814172	0.4073333333333236
421.39407114880504	0.405
420.97055514033093	0.3616666666666667
420.54701965465495	0.38233333333332364
420.1234646904282	0.3260000000000097
419.6998902463128	0.449333333333343
419.2762963209644	0.3139999999999903
418.8526829130364	0.35199999999999515
418.4290500211822	0.3839999999999903
418.00539764406386	0.3
417.5817257803349	0.35199999999999515
417.15803442864865	0.37800000000000483
416.7343235876586	0.36199999999999516
416.3105932560246	0.3210000000000097
415.8868434324023	0.3376666666666764
415.4630741154451	0.36833333333333335
415.03928530380216	0.3396666666666715
414.61547699613976	0.3960000000000097
414.1916491911049	0.3463333333333382
413.767801887351	0.5066666666666667
413.34393508353367	0.3863333333333382
412.9200487783128	0.3889999999999903
412.49614297033526	0.3523333333333236
412.0722176582611	0.2386666666666618
411.64827284073493	0.329333333333343
411.22430851642116	0.28566666666665697
410.80032468396655	0.3036666666666618
410.376321342029	0.34
409.9522984892553	0.3413333333333382
409.5282561243077	0.25300000000000483
409.1041942458351	0.3303333333333285
408.6801128524889	0.3476666666666764
408.2560119429202	0.28066666666665696
407.83189151578915	0.36933333333334306
407.40775156974246	0.3573333333333236
406.9835921034358	0.3253333333333285
406.5594131155161	0.4210000000000097
406.1352146046411	0.36199999999999516
405.7109965694642	0.4039999999999903
405.28675900863453	0.2803333333333285
404.86250192079893	0.2996666666666715
404.43822530461745	0.265
404.01392915874123	0.21199999999999514
403.5896134818172	0.2846666666666715
403.1652782724945	0.33
402.740923529433	0.35933333333334305
402.31654925127964	0.4063333333333382
401.8921554366857	0.35933333333334305
401.4677420843024	0.2966666666666667
401.0433091927745	0.30833333333333335
400.61885676076406	0.33066666666665695
400.1943847869137	0.3636666666666618
399.7698932698746	0.2896666666666715
399.345382208296	0.379333333333343
398.9208516008334	0.24333333333333335
398.4963014461336	0.2810000000000097
398.0717317428458	0.28300000000000486
397.647142489617	0.30666666666666664
397.2225336851048	0.33166666666666667
396.797905327954	0.314333333333343
396.3732574168138	0.22566666666665697
395.9485899503309	0.2776666666666764
395.52390292716103	0.22066666666665696
395.0991963459511	0.3476666666666764
394.6744702053458	0.31733333333332364
394.2497245039943	0.29833333333333334
393.8249592405521	0.31666666666666665
393.40017441366183	0.3686666666666618
392.9753700219747	0.31233333333332364
392.5505460641355	0.32066666666665694
392.1257025387955	0.28066666666665696
391.70083944460373	0.2910000000000097
391.2759567802049	0.29833333333333334
390.8510545442461	0.26066666666665694
390.42613273537836	0.23033333333332848
390.00119135225094	0.315666666666657
389.57623039350636	0.3189999999999903
389.1512498577893	0.35266666666667634
388.72624974375765	0.29266666666667634
388.3012300500495	0.24733333333332364
387.8761907753162	0.40300000000000485
387.45113191820036	0.2410000000000097
387.0260534773531	0.2626666666666764
386.60095545141934	0.310666666666657
386.1758378390437	0.2713333333333382
385.7507006388731	0.24333333333333335
385.3255438495567	0.35433333333334305
384.90036746973703	0.38800000000000484
384.47517149806316	0.3486666666666618
384.0499559331755	0.3219999999999951
383.6247207737275	0.36199999999999516
383.1994660183596	0.3276666666666764
382.77419166571866	0.31766666666667637
382.3488977144451	0.3939999999999903
381.92358416319234	0.29199999999999515
381.498251010603	0.3486666666666618
381.0728982553196	0.26066666666665694
380.6475258959869	0.2973333333333236
380.2221339312475	0.27066666666665695
379.7967223597549	0.26699999999999513
379.37129118014496	0.3630000000000049
378.94584039106695	0.36666666666666664
378.5203699911569	0.3089999999999903
378.09487997907036	0.5010000000000097
377.6693703534434	0.4736666666666618
377.243841112923	0.4153333333333285
376.8182922561495	0.4336666666666618
376.3927237817721	0.43
375.96713568843103	0.3436666666666618
375.541527974769	0.42266666666667635
375.11590063942424	0.2789999999999903
374.6902536810523	0.3289999999999903
374.2645870982871	0.35899999999999027
373.8389008897734	0.3339999999999903
373.41319505415163	0.35899999999999027
372.9874695900686	0.38466666666667154
372.561724496167	0.37333333333333335
372.1359597710851	0.365
371.7101754134632	0.29800000000000487
371.2843714219504	0.3573333333333236
370.8585477951872	0.42433333333334305
370.43270453181174	0.39699999999999513
370.00684163046236	0.43266666666667636
369.5809590897924	0.3960000000000097
369.1550569084336	0.37199999999999517
368.7291350850329	0.45166666666666666
368.30319361822427	0.38866666666666183
367.87723250665454	0.425
367.4512517489663	0.365
367.0252513437956	0.44033333333332847
366.5992312897829	0.29433333333334305
366.17319158557297	0.27800000000000485
365.747132229804	0.22733333333332365
365.32105322111636	0.3136666666666618
364.8949545581462	0.3713333333333382
364.46883623954045	0.39733333333332366
364.0426982639373	0.355
363.616540629975	0.3603333333333285
363.19036333628964	0.37199999999999517
362.7641663815303	0.42766666666667635
362.3379497643287	0.36266666666667635
361.9117134833253	0.38033333333332847
361.4854575371626	0.35199999999999515
361.05918192447024	0.370666666666657
360.6328866439016	0.30966666666667153
360.20657169408406	0.3496666666666715
359.7802370736624	0.3403333333333285
359.3538827812684	0.4096666666666715
358.92750881554895	0.4060000000000097
358.5011151751379	0.3736666666666618
358.07470185867567	0.40166666666666667
357.6482688647919	0.40699999999999514
357.22181619213774	0.33933333333334303
356.7953438393429	0.45233333333332365
356.3688518050455	0.4153333333333285
355.94234008788163	0.3760000000000097
355.51580868649387	0.36
355.0892575995162	0.4003333333333285
354.662686825589	0.32699999999999513
354.2360963633396	0.2826666666666764
353.8094862114171	0.39866666666666184
353.3828563684533	0.33933333333334303
352.95620683308425	0.2589999999999903
352.5295376039439	0.30699999999999517
352.1028486796747	0.3663333333333382
351.67614005890846	0.295666666666657
351.24941174028345	0.35300000000000487
350.8226637224314	0.38866666666666183
350.395896003997	0.34433333333334304
349.9691085836077	0.3363333333333382
349.5423014599039	0.3436666666666618
349.11547463151516	0.32699999999999513
348.6886280970863	0.3639999999999903
348.26176185524673	0.4673333333333236
347.8348759046305	0.58
347.40797024387143	0.3889999999999903
346.9810448716122	0.4419999999999952
346.55409978648225	0.42833333333333334
346.12713498711554	0.5139999999999904
345.70015047214383	0.430666666666657
345.2731462402119	0.44333333333333336
344.8461222899449	0.4266666666666667
344.41907861998106	0.3689999999999903
343.9920152289479	0.3913333333333382
343.56493211548786	0.3160000000000097
343.1378292782306	0.24233333333332363
342.71070671581214	0.3353333333333285
342.2835644268599	0.3210000000000097
341.85640241001437	0.34833333333333333
341.42922066390713	0.3310000000000097
341.0020191871679	0.31666666666666665
340.5747979784326	0.2989999999999903
340.14755703633097	0.32300000000000484
339.7202963595011	0.4330000000000048
339.2930159465705	0.46233333333332366
338.86571579617737	0.38333333333333336
338.4383959069447	0.4266666666666667
338.0110562775131	0.46233333333332366
337.5836969065141	0.3913333333333382
337.15631779257734	0.3953333333333285
336.72891893433024	0.3636666666666618
336.30150033041315	0.44666666666666666
335.8740619794536	0.430666666666657
335.44660388008316	0.5006666666666569
335.01912603093155	0.4196666666666715
334.59162843063257	0.4013333333333382
334.164111077818	0.47566666666665697
333.7365739711174	0.49199999999999516
333.3090171091582	0.3913333333333382
332.88144049057644	0.3913333333333382
332.4538441140017	0.44733333333332365
332.02622797806356	0.374333333333343
331.59859208138937	0.42
331.1709364226152	0.4389999999999903
330.7432610003664	0.5219999999999951
330.31556581327675	0.4539999999999903
329.8878508599694	0.5189999999999902
329.46011613908246	0.47333333333333333
329.0323616492413	0.4639999999999903
328.6045873890776	0.430666666666657
328.1767933572123	0.4823333333333236
327.7489795522879	0.44466666666667154
327.32114597292536	0.439333333333343
326.89329261775424	0.4583333333333333
326.4654194853997	0.45800000000000485
326.0375265745001	0.38266666666667637
325.60961388367843	0.43
325.1816814115642	0.5063333333333382
324.75372915678065	0.49833333333333335
324.3257571179637	0.47933333333334305
323.8977652937386	0.48633333333333817
323.46975368273064	0.570666666666657
323.0417222835672	0.48300000000000487
322.61367109488435	0.48766666666667635
322.18560011530076	0.41266666666667634
321.75750934344825	0.4389999999999903
321.32939877795206	0.31766666666667637
320.9012684174352	0.34566666666665696
320.47311826053584	0.4513333333333382
320.0449483058729	0.44566666666665694
319.6167585520736	0.45
319.18854899776323	0.5616666666666666
318.76031964157573	0.5789999999999903
318.332070482132	0.5510000000000097
317.9038015180594	0.5963333333333382
317.4755127479788	0.5173333333333237
317.04720417052425	0.5003333333333285
316.6188757843208	0.5133333333333333
316.1905275879894	0.5769999999999952
315.76215958015536	0.5626666666666764
315.3337717594525	0.4989999999999903
314.9053641244995	0.47433333333334304
314.4769366739217	0.44566666666665694
314.0484894063444	0.5333333333333333
313.6200223203948	0.499333333333343
313.19153541469825	0.5026666666666764
312.7630286878778	0.4660000000000097
312.3345021385521	0.4123333333333236
311.9059557653574	0.47
311.4773895669123	0.5566666666666666
311.04880354184195	0.5269999999999951
310.6201976887631	0.6310000000000097
310.1915720063139	0.5403333333333284
309.76292649310653	0.589333333333343
309.33426114777274	0.6069999999999951
308.90557596892484	0.6373333333333236
308.4768709551988	0.6226666666666764
308.04814610521345	0.599333333333343
307.61940141759175	0.5880000000000049
307.1906368909525	0.6469999999999951
306.76185252392514	0.6733333333333333
306.3330483151308	0.6453333333333284
305.9042242631923	0.6239999999999903
305.4753803667263	0.6056666666666569
305.0465166243624	0.6660000000000097
304.61763303472367	0.5846666666666716
304.1887295964288	0.71
303.7598063080965	0.655
303.3308631683563	0.6866666666666666
302.90190017582705	0.6319999999999951
302.4729173291296	0.7503333333333285
302.04391462688477	0.6760000000000097
301.61489206771347	0.81
301.18584965024104	0.7316666666666667
300.7567873730861	0.8653333333333285
300.3277052348696	0.8066666666666666
299.89860323421027	0.8663333333333382
299.4694813697333	0.9860000000000096
299.04033964005737	0.9023333333333237
298.6111780438057	0.8116666666666666
298.18199657959036	0.8930000000000049
297.752795246041	0.8953333333333284
297.3235740417741	0.945666666666657
296.8943329654107	0.9139999999999903
296.46507201556506	0.8686666666666618
296.0357911908646	0.930666666666657
295.6064904899281	0.8683333333333333
295.17716991137206	0.8646666666666715
294.7478294538131	0.8530000000000049
294.3184691158764	0.7406666666666569
293.8890888961806	0.8230000000000048
293.4596887933425	0.7113333333333381
293.03026880597844	0.7910000000000097
292.6008289327138	0.7306666666666569
292.1713691721628	0.7016666666666667
291.7418895229465	0.6766666666666666
291.312389983677	0.6006666666666569
290.8828705529796	0.5363333333333382
290.4533312294709	0.5626666666666764
290.02377201176955	0.5526666666666764
289.59419289848563	0.5060000000000097
289.1645938882465	0.54
288.7349749796687	0.6239999999999903
288.3053361713668	0.5469999999999952
287.8756774619528	0.5480000000000048
287.44599885005636	0.5983333333333334
287.0163003342854	0.6143333333333431
286.5865819132608	0.5946666666666716
286.1568435855947	0.5819999999999952
285.7270853499102	0.6139999999999903
285.2973072048218	0.63
284.8675091489438	0.685
284.4376911808905	0.66
284.00785329928516	0.5926666666666763
283.577995502742	0.6410000000000097
283.14811778987115	0.56
282.7182201592914	0.5196666666666715
282.28830260962343	0.4773333333333236
281.85836513947754	0.5486666666666619
281.42840774747015	0.5106666666666569
280.9984304322157	0.5110000000000097
280.5684331923285	0.48433333333334305
280.13841602642736	0.5463333333333382
279.70837893312665	0.5830000000000048
279.2783219110408	0.555666666666657
278.84824495877757	0.5680000000000048
278.41814807496235	0.499333333333343
277.98803125820507	0.5473333333333237
277.557894507118	0.5523333333333237
277.12773782031337	0.5106666666666569
276.6975611964142	0.5339999999999903
276.26736463402625	0.5203333333333284
275.8371481317683	0.530666666666657
275.4069116882459	0.48333333333333334
274.97665530208224	0.5613333333333382
274.54637897188735	0.515666666666657
274.11608269627345	0.5033333333333333
273.68576647384845	0.5110000000000097
273.2554303032375	0.5519999999999952
272.82507418304425	0.49833333333333335
272.39469811188513	0.5439999999999903
271.9643020883682	0.48266666666667635
271.533886111112	0.40433333333334304
271.10345017872675	0.465
270.67299428982454	0.4003333333333285
270.2425184430133	0.3516666666666667
269.8120226369118	0.3326666666666764
269.38150687013	0.3016666666666667
268.9509711412781	0.37233333333332364
268.52041544896383	0.41266666666667634
268.08983979180596	0.33433333333334303
267.65924416841244	0.3210000000000097
267.2286285773954	0.32066666666665694
266.7979930173607	0.36
266.36733748692905	0.345
265.9366619847041	0.3086666666666618
265.50596650929805	0.345
265.07525105931876	0.2646666666666715
264.64451563338287	0.2726666666666764
264.21376023009816	0.20833333333333334
263.78298484807476	0.2703333333333285
263.3521894859162	0.19300000000000486
262.9213741422434	0.23066666666665697
262.4905388156598	0.24266666666667636
262.0596835047756	0.20566666666665698
261.62880820819856	0.12366666666666182
261.1979129245432	0.03800000000000485
260.7669976524172	0.10366666666666181
260.3360623904265	0.15166666666666667
259.90510713718317	0.13466666666667151
259.47413189128866	0.07933333333334304
259.04313665136385	0.08133333333333818
258.6121214160123	0.14766666666667635
258.1810861838397	-0.00800000000000485
257.75003095345176	0.06133333333333819
257.31895572346724	0.052333333333323635
256.8878604924875	0.09066666666665696
256.45674525912045	0.16199999999999515
256.0256100219717	0.0989999999999903
255.59445477965582	0.08800000000000485
255.1632795307762	0.07800000000000486
254.73208427393865	0.04133333333333818
254.300869007751	0.09566666666665696
253.8696337308255	0.13033333333332847
253.4383784417657	0.05699999999999515
253.0071031391773	0.07933333333334304
252.57580782166383	0.10666666666666667
252.1444924878419	0.18233333333332363
251.71315713631068	0.08300000000000485
251.28180176568023	0.15233333333332363
250.85042637454976	0.10133333333333819
250.41903096153368	0.12166666666666667
249.9876155252377	0.12
249.55618006426315	0.0910000000000097
249.12472457721364	0.1810000000000097
248.69324906270137	0.07366666666666181
248.26175351933205	0.019333333333343035
247.83023794570707	0.021000000000009702
247.3987023404278	-0.0006666666666569654
246.96714670210864	0.0189999999999903
246.53557102935096	0.028999999999990297
246.10397532076047	0.08600000000000971
245.67235957493423	0.0889999999999903
245.24072379048877	0.1253333333333285
244.8090679660212	0.011000000000009702
244.37739210013714	0.015
243.94569619143803	0.02
243.51398023853605	0.1253333333333285
243.0822442400283	0.02300000000000485
242.65048819452264	0.016666666666666666
242.2187121006139	0.06
241.78691595691873	0.04466666666667152
241.35509976203193	0.06433333333334304
240.9232635145614	-0.02699999999999515
240.49140721310636	0.03933333333334303
240.059530856266	0.014666666666671517
239.62763444265474	0.02033333333332848
239.1957179708696	0.02800000000000485
238.76378143951197	0.07666666666666666
238.33182484718105	0.0016666666666666668
237.89984819248693	0.006666666666666667
237.46785147403094	0.0610000000000097
237.03583469041013	0.049666666666671515
236.6037978402259	0.03666666666666667
236.1717409220883	-0.013666666666661815
235.7396639345922	0.03766666666667637
235.30756687634332	0.058999999999990296
234.87544974593433	0.009666666666671517
234.44331254197968	0.018666666666661814
234.01115526307206	0.0789999999999903
233.57897790781496	0.01
233.1467804748055	-0.049666666666671515
232.7145629626515	0.018333333333333333
232.28232536995006	0.08733333333332363
231.8500676953025	0.025666666666656967
231.41778993730375	0.023333333333333334
230.98549209456385	0.018666666666661814
230.55317416567763	-0.04733333333332363
230.12083614924651	-0.051666666666666666
229.68847804386536	0.0339999999999903
229.2560998481399	0.08533333333332849
228.82370156066932	0.0239999999999903
228.39128318005285	0.028666666666661816
227.95884470488318	-0.005
227.5263861337704	0.05333333333333334
227.09390746530931	-0.06933333333334303
226.66140869809703	0.056666666666666664
226.22888983073057	0.058333333333333334
225.79635086181347	0.02699999999999515
225.36379178994494	0.0010000000000097012
224.93121261371985	0.009666666666671517
224.4986133317331	-0.010666666666656966
224.06599394259257	-0.007666666666676368
223.63335444489314	0.0389999999999903
223.20069483722963	-0.07666666666666666
222.76801511819698	0.045
222.33531528640088	-0.08966666666667152
221.9025953404362	0.01199999999999515
221.4698552788978	0.02666666666666667
221.0370951003849	0.05366666666666182
220.6043148034924	-0.03333333333333333
220.17151438682168	-0.06
219.73869384896756	0.0410000000000097
219.30585318852715	0.022333333333323633
218.87299240409308	0.050333333333328484
218.440111494269	-0.002333333333323632
218.0072104576475	-0.019333333333343035
217.5742892928257	0.06233333333332363
217.1413479983941	-0.08866666666666181
216.70838657295846	0.04
216.27540501510927	0.03233333333332363
215.8424033234436	-0.051666666666666666
215.40938149655196	-0.028666666666661816
214.97633953303793	-0.043000000000004854
214.5432774314942	0.006666666666666667
214.11019519051567	-0.014666666666671517
213.67709280869065	-0.03833333333333333
213.24397028462707	0.04833333333333333
212.8108276169111	-0.05966666666667152
212.37766480413984	0.03266666666667637
211.9444818449016	0.035666666666656965
211.51127873780212	0.1139999999999903
211.0780554814319	-0.06566666666665696
210.64481207438155	-0.01699999999999515
210.21154851524156	-0.08300000000000485
209.77826480261763	0.013999999999990298
209.34496093509603	-0.06633333333333818
208.91163691127156	-0.1553333333333285
208.47829272973476	-0.042666666666676366
208.0449283890849	-0.03
207.6115438879125	0.01800000000000485
207.17813922481238	-0.05
206.74471439836861	0.0016666666666666668
206.31126940718693	-0.045
205.87780424985567	-0.065
