768.7678709118609	0.22666666666666666
768.3601795435875	0.15166666666666667
767.9524697795084	0.1646666666666715
767.5447416183789	0.2263333333333382
767.1369950589522	0.08433333333334303
766.7292300999793	0.12
766.321446740222	0.02199999999999515
765.9136449784291	0.008666666666661816
765.5058248133583	0.1296666666666715
765.0979862437583	0.10666666666666667
764.6901292683908	0.057666666666676365
764.2822538860049	0.0910000000000097
763.8743600953579	0.12166666666666667
763.4664478951966	0.19166666666666668
763.0585172842827	0.12733333333332364
762.6505682613673	0.2439999999999903
762.2426008252036	0.11
761.8346149745404	0.1689999999999903
761.4266107081372	0.17300000000000484
761.0185880247452	0.18866666666666182
760.6105469231176	0.06433333333334304
760.202487402003	0.16366666666666183
759.7944094601592	0.07866666666666182
759.3863130963391	0.105
758.9781983092939	0.16433333333334305
758.5700650977723	0.12333333333333334
758.1619134605319	0.1786666666666618
757.7537433963257	0.07366666666666181
757.3455549039006	0.17533333333332848
756.9373479820074	0.010666666666656966
756.529122629406	0.16833333333333333
756.1208788448427	0.21333333333333335
755.7126166270709	0.06
755.3043359748374	0.09866666666666181
754.8960368869017	0.07833333333333334
754.4877193620104	0.06333333333333334
754.0793833989146	0.09433333333334304
753.671028996363	0.0960000000000097
753.2626561531134	0.13333333333333333
752.8542648679122	0.06633333333333818
752.4458551395104	0.20633333333333817
752.0374269666613	0.1
751.6289803481072	0.12233333333332364
751.2205152826077	0.09233333333332364
750.8120317689096	0.1110000000000097
750.4035298057637	-0.024333333333343036
749.9950093919146	-0.01699999999999515
749.586470526122	0.04566666666665697
749.1779132071304	-0.005666666666656966
748.7693374336906	0.033666666666661814
748.3607432045474	0.06699999999999515
747.9521305184559	0.1439999999999903
747.5434993741673	0.1339999999999903
747.134849770426	0.1646666666666715
746.7261817059784	0.15
746.3174951795825	0.04833333333333333
745.9087901899825	0.05433333333334303
745.500066735925	0.07566666666665696
745.091324816159	0.08033333333332848
744.6825644294398	0.12333333333333334
744.2737855745097	0.14933333333334303
743.8649882501174	0.0889999999999903
743.4561724550099	0.10733333333332364
743.0473381879422	0.165
742.6384854476568	0.1596666666666715
742.2296142329003	0.09033333333332848
741.8207245424215	0.06766666666667637
741.4118163749715	0.12833333333333333
741.002889729297	0.13166666666666665
740.5939446041443	0.08966666666667152
740.1849809982541	0.12866666666666182
739.7759989103856	0.1786666666666618
739.3669983392814	0.03199999999999515
738.957979283686	0.12133333333333818
738.5489417423437	0.0639999999999903
738.13988571401	0.1860000000000097
737.730811197425	0.21699999999999514
737.3217181913398	0.23333333333333334
736.9126066944921	0.1339999999999903
736.5034767056397	0.16199999999999515
736.0943282235205	0.15699999999999514
735.6851612468854	0.13266666666667637
735.2759757744748	0.10933333333334304
734.8667718050416	0.145
734.4575493373283	0.025
734.0483083700792	0.11800000000000485
733.6390489020412	0.052333333333323635
733.2297709319565	0.05333333333333334
732.8204744585761	0.06233333333332363
732.4111594806445	0.08433333333334303
732.0018259969019	0.1089999999999903
731.5924740060949	0.0539999999999903
731.1831035069702	-0.03733333333332363
730.7737144982744	0.10300000000000485
730.3643069787478	0.11633333333333819
729.9548809471348	0.05366666666666182
729.5454364021842	0.07466666666667152
729.1359733426384	0.10433333333334303
728.7264917672396	0.07733333333332364
728.3169916747303	0.08933333333334303
727.9074730638592	0.08466666666667151
727.4979359333709	0.10166666666666667
727.0883802820032	0.07666666666666666
726.6788061085008	0.15300000000000485
726.2692134116146	0.19300000000000486
725.8596021900805	0.13300000000000486
725.449972442645	0.14433333333334303
725.0403241680441	0.13533333333332848
724.630657365033	0.16066666666665697
724.2209720323476	0.1486666666666618
723.8112681687303	0.021333333333338183
723.4015457729232	0.050333333333328484
722.9918048436731	0.08933333333334303
722.5820453797202	0.008999999999990299
722.1722673798067	0.08033333333332848
721.7624708426707	0.10233333333332363
721.3526557670632	0.02733333333332363
720.94282215172	0.1553333333333285
720.5329699953855	0.08933333333334303
720.1230992967957	0.12033333333332848
719.7132100547013	0.0760000000000097
719.3033022678385	0.12266666666667637
718.8933759349494	0.15
718.4834310547741	0.11266666666667637
718.0734676260573	0.058666666666661815
717.6634856475368	0.1963333333333382
717.2534851179572	0.12066666666665697
716.8434660360522	0.08600000000000971
716.4334284005727	0.1546666666666715
716.0233722102523	0.14966666666667153
715.6132974638334	0.11766666666667637
715.2032041600562	0.13199999999999515
714.7930922976565	0.07633333333333818
714.3829618753853	0.17266666666667638
713.9728128919741	0.07766666666667636
713.562645346165	0.09699999999999515
713.1524592366941	0.10433333333334303
712.7422545623102	0.14233333333332363
712.3320313217469	0.03133333333333818
711.9217895137442	0.023666666666661815
711.5115291370382	0.007666666666676368
711.1012501903754	0.11033333333332848
710.6909526724916	0.07066666666665697
710.2806365821249	0.09666666666666666
709.870301918011	0.18333333333333332
709.4599486788967	0.2810000000000097
709.0495768635155	0.19033333333332847
708.6391864706077	0.12733333333332364
708.228777498909	0.14333333333333334
707.8183499471618	0.07100000000000971
707.4079038141018	0.22866666666666183
706.9974390984672	0.09333333333333334
706.5869557989937	0.05800000000000485
706.1764539144258	0.07300000000000485
705.7659334434971	0.07433333333334304
705.3553943849456	0.034333333333343034
704.9448367375052	0.11633333333333819
704.5342604999221	0.17533333333332848
704.123665670926	0.13833333333333334
703.7130522492591	0.0739999999999903
703.3024202336507	0.06666666666666667
702.8917696228474	0.09366666666666182
702.4811004155808	0.09033333333332848
702.0704126105888	0.115
701.6597062066053	0.0910000000000097
701.2489812023722	0.07300000000000485
700.8382375966235	0.12166666666666667
700.4274753880926	0.13333333333333333
700.0166945755177	0.10733333333332364
699.6058951576366	0.025
699.1950771331854	0.07966666666667152
698.7842405008996	0.14533333333332848
698.3733852595066	0.09233333333332364
697.962511407755	0.10166666666666667
697.5516189443744	0.15199999999999514
697.1407078681002	0.043000000000004854
696.7297781776643	0.06433333333334304
696.3188298718089	-0.04833333333333333
695.9078629492653	0.04699999999999515
695.4968774087696	0.17833333333333334
695.0858732490532	0.15166666666666667
694.6748504688518	0.18166666666666667
694.2638090669034	0.08766666666667637
693.8527490419395	0.09766666666667637
693.4416703926984	0.09233333333332364
693.0305731179045	0.09766666666667637
692.6194572163027	0.1160000000000097
692.2083226866246	0.14699999999999516
691.7971695276012	0.09666666666666666
691.3859977379644	0.12866666666666182
690.9748073164542	0.075
690.563598261802	0.08966666666667152
690.1523705727373	-0.01800000000000485
689.7411242479958	0.050666666666656965
689.3298592863133	0.04766666666667637
688.9185756864193	0.11966666666667151
688.5072734470516	0.09699999999999515
688.095952566933	0.09566666666665696
687.6846130448081	0.08433333333334303
687.273254879404	0.09433333333334304
686.8618780694522	0.1460000000000097
686.4504826136841	0.09066666666665696
686.0390685108379	0.15166666666666667
685.6276357596405	0.18433333333334304
685.216184358828	0.085
684.804714307125	0.07333333333333333
684.3932256032718	0.0810000000000097
683.981718245998	0.1439999999999903
683.5701922340304	0.17066666666665697
683.1586475661029	0.1360000000000097
682.747084240951	0.155
682.3355022573022	0.19300000000000486
681.9239016138878	0.14199999999999516
681.5122823094371	0.15733333333332364
681.100644342686	0.1389999999999903
680.6889877123616	0.17166666666666666
680.2773124171954	0.17199999999999516
679.8656184559145	0.12833333333333333
679.4539058272569	0.12633333333333818
679.0421745299477	0.13533333333332848
678.6304245627183	0.16
678.2186559242936	0.07333333333333333
677.8068686134138	0.016333333333338185
677.395062628804	0.03766666666667637
676.9832379691933	0.022333333333323633
676.5713946333069	0.09366666666666182
676.1595326198826	0.10199999999999515
675.7476519276477	0.08199999999999515
675.3357525553292	0.1360000000000097
674.9238345016566	0.1139999999999903
674.5118977653547	0.19866666666666183
674.0999423451638	0.17733333333332363
673.6879682398022	0.1939999999999903
673.2759754480059	0.16866666666666183
672.8639639684933	0.1486666666666618
672.4519338000044	0.19666666666666666
672.0398849412645	0.12933333333334304
671.6278173909984	0.24766666666667636
671.2157311479332	0.15600000000000971
670.8036262108026	0.1310000000000097
670.3915025783316	0.25833333333333336
669.9793602492473	0.1896666666666715
669.5671992222748	0.09800000000000485
669.1550194961476	0.17266666666667638
668.7428210695929	0.09
668.3306039413335	0.034333333333343034
667.9183681100944	0.18633333333333818
667.5061135746137	0.04033333333332848
667.0938403336097	0.09266666666667636
666.6815483858096	0.08366666666666181
666.2692377299405	0.15300000000000485
665.856908364734	0.15766666666667636
665.4445602889106	0.11933333333334303
665.0321935011997	0.14033333333332848
664.6198080003242	0.15800000000000486
664.2074037850176	0.1689999999999903
663.7949808539984	0.05466666666667152
663.3825392059981	0.12266666666667637
662.9700788397353	0.2036666666666618
662.5575997539434	0.10533333333332848
662.1451019473432	0.11766666666667637
661.732585418664	0.12066666666665697
661.3200501666242	0.07699999999999516
660.9074961899598	0.14633333333333817
660.494923487387	0.2103333333333285
660.0823320576351	0.1339999999999903
659.6697218994246	0.14300000000000485
659.2570930114873	0.13033333333332847
658.8444453925414	0.2339999999999903
658.4317790413164	0.21166666666666667
658.0190939565284	0.15066666666665696
657.6063901369134	0.08466666666667151
657.1936675811899	0.17800000000000485
656.7809262880805	0.19033333333332847
656.3681662563105	0.17699999999999516
655.9553874846001	0.13533333333332848
655.5425899716812	0.145
655.1297737162741	0.008999999999990299
654.7169387170998	0.058999999999990296
654.3040849728786	0.13933333333334302
653.8912124823422	0.16366666666666183
653.4783212442112	0.1553333333333285
653.0654112572063	0.1689999999999903
652.6524825200479	0.20066666666665697
652.2395350314655	0.22733333333332365
651.8265687901776	0.1963333333333382
651.4135837949091	0.07366666666666181
651.0005800443785	0.1853333333333285
650.5875575373129	0.1539999999999903
650.1745162724332	0.2539999999999903
649.7614562484596	0.26733333333332365
649.348377464113	0.2389999999999903
648.9352799181206	0.19933333333334302
648.5221636092008	0.17466666666667152
648.1090285360741	0.1413333333333382
647.6958746974614	0.18300000000000485
647.2827020920896	0.17066666666665697
646.8695107186775	0.22566666666665697
646.4563005759431	0.17833333333333334
646.0430716626075	0.24566666666665696
645.6298239773976	0.21833333333333332
645.2165575190319	0.20666666666666667
644.8032722862267	0.2683333333333333
644.3899682777028	0.20766666666667638
643.9766454921893	0.08266666666667637
643.5633039283982	0.17066666666665697
643.1499435850546	0.08933333333334303
642.7365644608705	0.14533333333332848
642.3231665545771	0.1646666666666715
641.9097498648889	0.19966666666667152
641.4963143905242	0.18733333333332364
641.0828601302013	0.1589999999999903
640.6693870826476	0.1296666666666715
640.2558952465771	0.07699999999999516
639.8423846207105	0.10866666666666182
639.4288552037599	0.11066666666665696
639.0153069944565	0.08733333333332363
638.6017399915146	0.225
638.1881541936483	0.18699999999999514
637.7745495995827	0.26800000000000485
637.3609262080296	0.31266666666667636
636.9472840177161	0.24333333333333335
636.5336230273545	0.2160000000000097
636.119943235665	0.21300000000000485
635.7062446413621	0.14666666666666667
635.2925272431705	0.16366666666666183
634.8787910398067	0.17333333333333334
634.4650360299848	0.259333333333343
634.0512622124211	0.11366666666666182
633.6374695858384	0.18066666666665696
633.2236581489551	0.2039999999999903
632.8098279004832	0.18800000000000486
632.3959788391412	0.19433333333334304
631.9821109636476	0.11933333333334303
631.5682242727231	0.1853333333333285
631.1543187650774	0.1810000000000097
630.7403944394289	0.2563333333333382
630.3264512944984	0.19366666666666182
629.9124893289999	0.23833333333333334
629.4985085416498	0.17066666666665697
629.08450893116	0.11633333333333819
628.6704904962556	0.2489999999999903
628.2564532356485	0.15633333333333818
627.8423971480548	0.18466666666667153
627.4283222321847	0.3203333333333285
627.0142284867629	0.175
626.6001159105014	0.24466666666667153
626.1859845021144	0.1860000000000097
625.771834260316	0.26166666666666666
625.3576651838268	0.23466666666667152
624.9434772713589	0.21
624.5292705216264	0.1436666666666618
624.1150449333433	0.18633333333333818
623.7008005052281	0.14566666666665695
623.2865372359929	0.16133333333333819
622.872255124354	0.11133333333333818
622.457954169021	0.18666666666666668
622.0436343687147	0.23699999999999516
621.629295722145	0.21566666666665696
621.2149382280302	0.1989999999999903
620.8005618850757	0.17633333333333817
620.3861666920067	0.16866666666666183
619.9717526475306	0.19699999999999515
619.5573197503596	0.25233333333332364
619.1428679992077	0.14800000000000485
618.7283973927935	0.21800000000000486
618.3139079298264	0.20466666666667152
617.8993996090189	0.225
617.4848724290849	0.11866666666666181
617.0703263887341	0.16199999999999515
616.6557614866873	0.1546666666666715
616.2411777216521	0.235
615.8265750923404	0.20166666666666666
615.411953597462	0.3989999999999903
614.9973132357354	0.24166666666666667
614.5826540058705	0.265
614.1679759065792	0.23199999999999515
613.7532789365712	0.254333333333343
613.3385630945629	0.10733333333332364
612.9238283792641	0.155
612.5090747893845	0.21766666666667636
612.0943023236341	0.13366666666666183
611.6795109807312	0.1946666666666715
611.2647007593813	0.21199999999999514
610.8498716582986	0.2536666666666618
610.4350236761907	0.31766666666667637
610.0201568117717	0.28066666666665696
609.6052710637535	0.24333333333333335
609.1903664308418	0.17833333333333334
608.7754429117483	0.20566666666665698
608.3605005051894	0.17033333333332848
607.9455392098686	0.2910000000000097
607.5305590245018	0.2039999999999903
607.1155599477905	0.21066666666665695
606.700541978453	0.2783333333333333
606.2855051151969	0.2996666666666715
605.8704493567299	0.23466666666667152
605.4553747017618	0.21766666666667636
605.0402811490067	0.11033333333332848
604.6251686971679	0.2519999999999952
604.2100373449596	0.14566666666665695
603.794887091085	0.17766666666667638
603.3797179342605	0.2210000000000097
602.9645298731892	0.22699999999999515
602.5493229065834	0.235
602.1340970331482	0.24
601.7188522515959	0.24066666666665695
601.3035885606339	0.2866666666666667
600.8883059589721	0.3036666666666618
600.4730044453094	0.21933333333334304
600.0576840183686	0.23
599.6423446768466	0.24733333333332364
599.2269864194574	0.17333333333333334
598.8116092449044	0.2510000000000097
598.3962131518952	0.265
597.9807981391417	0.28766666666667634
597.5653642053495	0.24800000000000486
597.1499113492239	0.2816666666666667
596.7344395694705	0.2739999999999903
596.3189488648012	0.2996666666666715
595.9034392339214	0.23066666666665697
595.4879106755388	0.235
595.0723631883525	0.2039999999999903
594.6567967710808	0.20966666666667153
594.2412114224227	0.2036666666666618
593.825607141088	0.16033333333332847
593.4099839257777	0.042666666666676366
592.9943417752039	0.15266666666667636
592.57868068807	0.03733333333332363
592.1630006630813	0.05533333333332848
591.7473016989411	0.10100000000000971
591.3315837943614	0.1610000000000097
590.9158469480456	0.09566666666665696
590.5000911586968	0.06333333333333334
590.0843164250163	0.1646666666666715
589.6685227457202	0.22966666666667152
589.2527101195077	0.08866666666666181
588.8368785450818	0.11233333333332363
588.4210280211462	0.20199999999999516
588.0051585464104	0.19699999999999515
587.5892701195799	0.2086666666666618
587.1733627393536	0.20233333333332362
586.7574364044372	0.2089999999999903
586.341491113538	0.28066666666665696
585.9255268653596	0.19366666666666182
585.5095436586031	0.1539999999999903
585.0935414919694	0.11466666666667152
584.6775203641728	0.22433333333334304
584.26148027391	0.17833333333333334
583.8454212198844	0.16666666666666666
583.4293432007971	0.24566666666665696
583.0132462153579	0.21466666666667153
582.5971302622678	0.16533333333332847
582.1809953402259	0.18433333333334304
581.7648414479354	0.21266666666667636
581.3486685841062	0.11833333333333333
580.9324767474351	0.15333333333333332
580.5162659366252	0.06433333333334304
580.1000361503757	0.06433333333334304
579.6837873873984	0.115
579.267519646388	0.05566666666665696
578.8512329260478	0.2
578.4349272250832	0.13033333333332847
578.0186025421867	0.21266666666667636
577.6022588760703	0.2453333333333285
577.1858962254329	0.19033333333332847
576.7695145889734	0.24233333333332363
576.3531139653909	0.20066666666665697
575.9366943533951	0.21133333333333817
575.5202557516828	0.10166666666666667
575.1037981589529	0.08533333333332849
574.6873215739046	0.11766666666667637
574.2708259952475	0.08133333333333818
573.854311421674	0.2060000000000097
573.4377778518897	0.14566666666665695
573.0212252845891	0.10733333333332364
572.6046537184778	0.1313333333333382
572.1880631522547	0.0810000000000097
571.7714535846209	0.003999999999990299
571.3548250142687	0.1436666666666618
570.9381774399104	0.07800000000000486
570.5215108602383	0.042666666666676366
570.1048252739535	0.14933333333334303
569.6881206797506	-0.0010000000000097012
569.2713970763372	0.09633333333333818
568.854654462408	0.08866666666666181
568.4378928366642	0.085
568.0211121978002	0.08
567.6043125445195	0.13433333333334305
567.187493875521	0.016333333333338185
566.7706561895014	0.14433333333334303
566.3537994851577	0.12266666666667637
565.9369237611908	0.06133333333333819
565.5200290162996	0.2086666666666618
565.1031152491812	0.14633333333333817
564.6861824585301	0.16699999999999515
564.2692306430516	0.2160000000000097
563.8522598014383	0.21666666666666667
563.4352699323913	0.16533333333332847
563.0182610345986	0.1739999999999903
562.6012331067724	0.18266666666667636
562.1841861476007	0.13266666666667637
561.7671201557823	0.18266666666667636
561.3500351300121	0.15866666666666182
560.9329310689911	0.03666666666666667
560.515807971416	0.09
560.0986658359838	0.07166666666666667
559.6815046613867	0.13766666666667637
559.2643244463217	0.0810000000000097
558.847125189492	0.19800000000000484
558.4299068895878	0.16
558.012669545306	0.14266666666667638
557.5954131553412	0.17166666666666666
557.1781377183946	0.19166666666666668
556.7608432331607	0.11666666666666667
556.343529698332	0.15633333333333818
555.926197112601	0.15833333333333333
555.5088454746709	0.2539999999999903
555.0914747832342	0.18933333333334304
554.6740850369855	0.25233333333332364
554.2566762346152	0.1810000000000097
553.8392483748285	0.20633333333333817
553.4218014563138	0.22666666666666666
553.0043354777655	0.2389999999999903
552.5868504378763	0.23266666666667637
552.1693463353471	0.19966666666667152
551.7518231688704	0.1663333333333382
551.3342809371366	0.2336666666666618
550.91671963884	0.22066666666665696
550.49913927268	0.2746666666666715
550.0815398373467	0.309333333333343
549.6639213315347	0.21366666666666181
549.2462837539342	0.2760000000000097
548.8286271032442	0.24933333333334304
548.4109513781551	0.315
547.9932565773614	0.23066666666665697
547.5755426995535	0.34
547.1578097434281	0.2703333333333285
546.7400577076776	0.2339999999999903
546.3222865909923	0.26166666666666666
545.9044963920649	0.2513333333333382
545.4866871095918	0.30533333333332846
545.0688587422615	0.32733333333332365
544.6510112887704	0.2946666666666715
544.2331447478026	0.35566666666665697
543.8152591180612	0.3573333333333236
543.39735439823	0.2733333333333333
542.979430587006	0.370666666666657
542.5614876830728	0.2839999999999903
542.1435256851336	0.26366666666666183
541.7255445918723	0.3283333333333333
541.3075444019836	0.37199999999999517
540.8895251141511	0.3680000000000048
540.471486727076	0.3516666666666667
540.0534292394465	0.3463333333333382
539.6353526499506	0.3169999999999952
539.217256957283	0.475
538.7991421601253	0.4189999999999903
538.3810082571806	0.37833333333333335
537.962855247133	0.434333333333343
537.5446831286725	0.440666666666657
537.1264919004875	0.4139999999999903
536.7082815612724	0.49433333333334306
536.2900521097155	0.5116666666666667
535.871803544509	0.5226666666666764
535.4535358643325	0.5260000000000097
535.0352490678893	0.5289999999999903
534.6169431538631	0.48300000000000487
534.19861812094	0.5730000000000048
533.78027396781	0.5139999999999904
533.361910693168	0.6353333333333285
532.9435282956977	0.5919999999999952
532.5251267740915	0.5773333333333236
532.1067061270311	0.6553333333333284
531.6882663532132	0.569333333333343
531.2698074513237	0.6789999999999903
530.8513294200487	0.595
530.4328322580762	0.5719999999999952
530.0143159641009	0.6030000000000049
529.5957805368043	0.6889999999999903
529.1772259748768	0.6576666666666764
528.7586522770022	0.735
528.3400594418729	0.7810000000000097
527.9214474681769	0.84
527.5028163546002	0.9296666666666715
527.0841660998245	0.8869999999999951
526.6654967025466	0.8756666666666569
526.2468081614481	1.020666666666657
525.8281004752192	1.0110000000000097
525.4093736425393	0.9976666666666764
524.9906276621032	1.029333333333343
524.5718625325945	1.1073333333333237
524.1530782526993	1.154333333333343
523.7342748211013	1.255666666666657
523.3154522364929	1.3006666666666569
522.896610497558	1.305666666666657
522.4777496029803	1.3783333333333334
522.0588695514436	1.4036666666666617
521.6399703416404	1.4339999999999904
521.2210519722521	1.6389999999999902
520.8021144419671	1.5810000000000097
520.3831577494668	1.7136666666666618
519.9641818934351	1.7636666666666618
519.5451868725623	1.9283333333333332
519.1261726855342	2.08899999999999
518.7071393310304	2.286999999999995
518.2880868077347	2.468000000000005
517.8690151143393	2.7703333333333284
517.449924249526	2.8276666666666763
517.0308142119765	3.102333333333324
516.6116850003721	3.323000000000005
516.1925366134055	3.45100000000001
515.7733690497562	3.909333333333343
515.3541823081079	4.31100000000001
514.934976387142	4.626999999999995
514.5157512855491	5.1280000000000046
514.0965070020062	5.75100000000001
513.6772435352017	6.2580000000000044
513.2579608838126	6.8566666666666665
512.8386590465294	7.559666666666671
512.4193380220314	8.368000000000006
511.99999780900464	9.185666666666657
511.580638406122	10.091333333333338
511.1612598120781	11.00899999999999
510.7418620255524	12.067333333333323
510.3224450452243	12.878666666666662
509.9030088697755	13.903000000000004
509.48355349789404	14.397666666666677
509.06407892825723	14.88399999999999
508.6445851595488	15.129666666666672
508.22507219044604	15.072333333333324
507.8055400196393	14.791333333333338
507.3859886458058	14.379666666666672
506.96641806762716	13.71
506.5468282837806	12.935333333333329
506.12721929295435	12.118333333333334
505.7075910938277	11.065333333333328
505.2879436850803	10.328666666666662
504.8682770653892	9.435666666666657
504.4485912334448	8.661999999999995
504.02888618792	7.9230000000000045
503.6091619274987	7.161000000000009
503.1894184508558	6.429666666666671
502.76965575668174	6.018000000000005
502.3498738436494	5.493000000000005
501.93007271044036	4.9816666666666665
501.51025235573195	4.644666666666671
501.09041277821007	4.311999999999995
500.67055397655207	4.052333333333324
500.25067594943516	3.666333333333338
499.8307786955409	3.456999999999995
499.41086221354453	3.183666666666662
498.9909265021319	2.9460000000000095
498.5709715599803	2.8453333333333286
498.15099738576487	2.6303333333333283
497.73100397816495	2.4833333333333334
497.31099133586446	2.2873333333333234
496.89095945753843	2.233000000000005
496.4709083418663	2.080666666666657
496.050837987521	1.9516666666666667
495.6307483931907	1.9213333333333382
495.21063955754823	1.6753333333333285
494.790511479271	1.711999999999995
494.37036415703403	1.6716666666666666
493.95019758952327	1.545666666666657
493.53001177541165	1.515
493.1098067133765	1.4789999999999903
492.68958240209287	1.4639999999999902
492.26933884024237	1.4569999999999952
491.8490760265023	1.3439999999999903
491.42879395954776	1.2666666666666666
491.0084926380517	1.2316666666666667
490.5881720607	1.129333333333343
490.1678322261635	1.0843333333333431
489.7474731331217	1.130666666666657
489.32709478024304	1.153000000000005
488.9066971662135	1.1453333333333284
488.48628028970614	1.0873333333333237
488.0658441493982	1.0496666666666714
487.6453887439581	0.9819999999999951
487.224914072072	0.7930000000000048
486.8044201324106	0.8656666666666569
486.38390692364896	0.8646666666666715
485.96337444446226	0.8396666666666716
485.5428226935299	0.7773333333333237
485.1222516695248	0.8253333333333285
484.7016613711199	0.819333333333343
484.28105179699037	0.7986666666666619
483.86042294581335	0.795
483.43977481626627	0.7366666666666667
483.01910740701766	0.689333333333343
482.59842071674257	0.67
482.1777147441205	0.68
481.75698948782224	0.809333333333343
481.33624494652287	0.7643333333333431
480.91548111889534	0.6433333333333333
480.4946980036104	0.7160000000000097
480.0738955993496	0.6880000000000048
479.65307390478165	0.6410000000000097
479.2322329185816	0.7013333333333381
478.81137263941804	0.650666666666657
478.3904930659726	0.660666666666657
477.9695941969139	0.6069999999999951
477.5486760309148	0.5576666666666764
477.127738566644	0.6546666666666715
476.70678180278304	0.6296666666666715
476.28580573800053	0.6403333333333285
475.86481037096945	0.655666666666657
475.44379570035835	0.5366666666666666
475.0227617248467	0.5193333333333431
474.6017084431009	0.4726666666666764
474.1806358537961	0.49033333333332846
473.75954395560086	0.5353333333333284
473.3384327471903	0.5096666666666715
472.91730222723737	0.6030000000000049
472.4961523944085	0.6166666666666667
472.07498324737657	0.61
471.6537947848168	0.5063333333333382
471.2325870053998	0.5596666666666715
470.81135990779217	0.5123333333333236
470.3901134906646	0.5089999999999903
469.9688477526965	0.5
469.54756269254995	0.39066666666665695
469.12625830890016	0.46800000000000486
468.7049346004113	0.48699999999999516
468.28359156576283	0.515666666666657
467.86222920361905	0.42133333333333817
467.4408475126529	0.44233333333332364
467.0194464915286	0.4413333333333382
466.5980261389256	0.49166666666666664
466.176586453506	0.44966666666667154
465.75512743394273	0.4633333333333333
465.3336490789022	0.33433333333334303
464.91215138705746	0.3573333333333236
464.490634357077	0.34199999999999514
464.0690979876294	0.37
463.647542277379	0.35
463.22596722500305	0.3623333333333236
462.80437282916796	0.35433333333334305
462.3827590885402	0.3610000000000097
461.96112600178395	0.3310000000000097
461.5394735675766	0.30333333333333334
461.1178017845845	0.395
460.69611065147194	0.27566666666665696
460.2744001669097	0.38266666666667637
459.8526703295598	0.28433333333334304
459.4309211380996	0.3376666666666764
459.00915259119125	0.22300000000000486
458.58736468750317	0.3836666666666618
458.1655574256997	0.2263333333333382
457.74373080445605	0.2939999999999903
457.321884822432	0.259333333333343
456.9000194782984	0.39699999999999513
456.47813477071736	0.22300000000000486
456.0562306983639	0.20300000000000484
455.634307259898	0.1553333333333285
455.2123644539904	0.2946666666666715
454.7904022793011	0.23733333333332363
454.36842073450293	0.264333333333343
453.9464198182602	0.2536666666666618
453.5243995292416	0.29933333333334305
453.1023598661026	0.2960000000000097
452.6803008275226	0.23966666666667152
452.2582224121617	0.16333333333333333
451.83612461868404	0.19199999999999515
451.41400744575174	0.2763333333333382
450.9918708920399	0.27666666666666667
450.56971495620627	0.3219999999999951
450.1475396369195	0.2853333333333285
449.72534493283945	0.3396666666666715
449.3031308426391	0.34433333333334304
448.88089736497835	0.314333333333343
448.4586444985215	0.33666666666666667
448.03637224192846	0.27666666666666667
447.6140805938743	0.2873333333333236
447.19176955301896	0.2776666666666764
446.7694391180224	0.295666666666657
446.347089287551	0.329333333333343
445.9247200602713	0.23466666666667152
445.50233143484525	0.34199999999999514
445.079923409935	0.41633333333333816
444.6574959842027	0.4153333333333285
444.2350491563169	0.3460000000000097
443.8125829249397	0.3946666666666715
443.390097288731	0.3326666666666764
442.9675922463529	0.27699999999999514
442.54506779647625	0.3453333333333285
442.12252393775657	0.31
441.69996066885807	0.3739999999999903
441.277377988443	0.4436666666666618
440.85477589517325	0.4613333333333382
440.43215438771324	0.49466666666667153
440.00951346472505	0.4816666666666667
439.58685312487074	0.3333333333333333
439.16417336680587	0.28066666666665696
438.7414741892034	0.34433333333334304
438.31875559071676	0.25533333333332847
437.8960175700124	0.29933333333334305
437.4732601257437	0.24033333333332849
437.05048325658146	0.2896666666666715
436.62768696118343	0.254333333333343
436.2048712382074	0.365666666666657
435.7820360863154	0.35333333333333333
435.3591815041739	0.29300000000000487
434.9363074904384	0.27300000000000485
434.51341404377115	0.27
434.09050116282765	0.3713333333333382
433.6675688462765	0.33566666666665695
433.24461709277546	0.2873333333333236
432.8216459009802	0.29
432.3986552695505	0.25300000000000483
431.9756451971529	0.2713333333333382
431.55261568244293	0.2813333333333382
431.12956672408274	0.30266666666667635
430.70649832072354	0.3313333333333382
430.28341047103396	0.22933333333334305
429.8603031736717	0.28766666666667634
429.43717642729246	0.31300000000000483
429.0140302305539	0.3573333333333236
428.5908645821203	0.44333333333333336
428.1676794806494	0.3503333333333285
427.74447492479686	0.3913333333333382
427.3212509132182	0.3983333333333333
426.89800744458205	0.44233333333332364
426.4747445175375	0.4280000000000049
426.05146213074664	0.4726666666666764
425.6281602828629	0.41800000000000487
425.20483897255264	0.44666666666666666
424.7814981984672	0.36199999999999516
424.3581379592665	0.35833333333333334
423.9347582536018	0.4410000000000097
423.5113590801394	0.36533333333332846
423.0879404375329	0.3060000000000097
422.66450232444	0.25966666666667154
422.24104473951405	0.3383333333333333
421.8175676814172	0.385
421.39407114880504	0.37666666666666665
420.97055514033093	0.46233333333332366
420.54701965465495	0.33366666666666184
420.1234646904282	0.3819999999999952
419.6998902463128	0.3189999999999903
419.2762963209644	0.32699999999999513
418.8526829130364	0.30533333333332846
418.4290500211822	0.28766666666667634
418.00539764406386	0.2360000000000097
417.5817257803349	0.41199999999999515
417.15803442864865	0.3603333333333285
416.7343235876586	0.4013333333333382
416.3105932560246	0.384333333333343
415.8868434324023	0.35433333333334305
415.4630741154451	0.2946666666666715
415.03928530380216	0.35066666666665697
414.61547699613976	0.28433333333334304
414.1916491911049	0.3169999999999952
413.767801887351	0.37166666666666665
413.34393508353367	0.27433333333334303
412.9200487783128	0.2823333333333236
412.49614297033526	0.3710000000000097
412.0722176582611	0.2986666666666618
411.64827284073493	0.33433333333334303
411.22430851642116	0.36199999999999516
410.80032468396655	0.41766666666667634
410.376321342029	0.29300000000000487
409.9522984892553	0.20533333333332848
409.5282561243077	0.2239999999999903
409.1041942458351	0.29300000000000487
408.6801128524889	0.34933333333334304
408.2560119429202	0.36333333333333334
407.83189151578915	0.3946666666666715
407.40775156974246	0.3169999999999952
406.9835921034358	0.26666666666666666
406.5594131155161	0.2860000000000097
406.1352146046411	0.2563333333333382
405.7109965694642	0.3453333333333285
405.28675900863453	0.29066666666665697
404.86250192079893	0.30333333333333334
404.43822530461745	0.2746666666666715
404.01392915874123	0.3863333333333382
403.5896134818172	0.3660000000000097
403.1652782724945	0.4389999999999903
402.740923529433	0.38266666666667637
402.31654925127964	0.35833333333333334
401.8921554366857	0.36199999999999516
401.4677420843024	0.29766666666667635
401.0433091927745	0.32699999999999513
400.61885676076406	0.3333333333333333
400.1943847869137	0.35066666666665697
399.7698932698746	0.3933333333333333
399.345382208296	0.37199999999999517
398.9208516008334	0.33666666666666667
398.4963014461336	0.35300000000000487
398.0717317428458	0.3210000000000097
397.647142489617	0.36666666666666664
397.2225336851048	0.3189999999999903
396.797905327954	0.32166666666666666
396.3732574168138	0.35766666666667635
395.9485899503309	0.3963333333333382
395.52390292716103	0.4013333333333382
395.0991963459511	0.32800000000000484
394.6744702053458	0.33366666666666184
394.2497245039943	0.36433333333334306
393.8249592405521	0.3433333333333333
393.40017441366183	0.24066666666665695
392.9753700219747	0.2810000000000097
392.5505460641355	0.26233333333332365
392.1257025387955	0.30133333333333817
391.70083944460373	0.4076666666666764
391.2759567802049	0.3403333333333285
390.8510545442461	0.45
390.42613273537836	0.2703333333333285
390.00119135225094	0.31233333333332364
389.57623039350636	0.4116666666666667
389.1512498577893	0.3510000000000097
388.72624974375765	0.2886666666666618
388.3012300500495	0.24699999999999514
387.8761907753162	0.30333333333333334
387.45113191820036	0.38233333333332364
387.0260534773531	0.4653333333333285
386.60095545141934	0.37466666666667153
386.1758378390437	0.41266666666667634
385.7507006388731	0.34933333333334304
385.3255438495567	0.3346666666666715
384.90036746973703	0.38266666666667637
384.47517149806316	0.2989999999999903
384.0499559331755	0.43733333333332364
383.6247207737275	0.3739999999999903
383.1994660183596	0.375
382.77419166571866	0.2889999999999903
382.3488977144451	0.29199999999999515
381.92358416319234	0.30433333333334306
381.498251010603	0.3860000000000097
381.0728982553196	0.3810000000000097
380.6475258959869	0.4596666666666715
380.2221339312475	0.31666666666666665
379.7967223597549	0.345
379.37129118014496	0.41933333333334305
378.94584039106695	0.36199999999999516
378.5203699911569	0.3413333333333382
378.09487997907036	0.37800000000000483
377.6693703534434	0.2789999999999903
377.243841112923	0.30033333333332846
376.8182922561495	0.26933333333334303
376.3927237817721	0.2783333333333333
375.96713568843103	0.37199999999999517
375.541527974769	0.37266666666667636
375.11590063942424	0.37
374.6902536810523	0.34800000000000486
374.2645870982871	0.38733333333332365
373.8389008897734	0.465
373.41319505415163	0.4166666666666667
372.9874695900686	0.36266666666667635
372.561724496167	0.3553333333333285
372.1359597710851	0.3436666666666618
371.7101754134632	0.425
371.2843714219504	0.4033333333333333
370.8585477951872	0.36733333333332363
370.43270453181174	0.38800000000000484
370.00684163046236	0.43166666666666664
369.5809590897924	0.5016666666666667
369.1550569084336	0.42766666666667635
368.7291350850329	0.4186666666666618
368.30319361822427	0.45666666666666667
367.87723250665454	0.3810000000000097
367.4512517489663	0.3503333333333285
367.0252513437956	0.4023333333333236
366.5992312897829	0.36533333333332846
366.17319158557297	0.4223333333333236
365.747132229804	0.42433333333334305
365.32105322111636	0.3189999999999903
364.8949545581462	0.4363333333333382
364.46883623954045	0.4360000000000097
364.0426982639373	0.3686666666666618
363.616540629975	0.4096666666666715
363.19036333628964	0.47300000000000486
362.7641663815303	0.40066666666665696
362.3379497643287	0.35899999999999027
361.9117134833253	0.42833333333333334
361.4854575371626	0.3303333333333285
361.05918192447024	0.38166666666666665
360.6328866439016	0.38666666666666666
360.20657169408406	0.38266666666667637
359.7802370736624	0.37
359.3538827812684	0.38866666666666183
358.92750881554895	0.4773333333333236
358.5011151751379	0.4453333333333285
358.07470185867567	0.31833333333333336
357.6482688647919	0.4246666666666715
357.22181619213774	0.3836666666666618
356.7953438393429	0.4173333333333236
356.3688518050455	0.43166666666666664
355.94234008788163	0.42333333333333334
355.51580868649387	0.34
355.0892575995162	0.43466666666667153
354.662686825589	0.30699999999999517
354.2360963633396	0.4296666666666715
353.8094862114171	0.43
353.3828563684533	0.525666666666657
352.95620683308425	0.4633333333333333
352.5295376039439	0.4603333333333285
352.1028486796747	0.475
351.67614005890846	0.4036666666666618
351.24941174028345	0.3896666666666715
350.8226637224314	0.3560000000000097
350.395896003997	0.39733333333332366
349.9691085836077	0.405
349.5423014599039	0.3863333333333382
349.11547463151516	0.4439999999999903
348.6886280970863	0.39233333333332365
348.26176185524673	0.4663333333333382
347.8348759046305	0.4110000000000097
347.40797024387143	0.48133333333333816
346.9810448716122	0.5046666666666715
346.55409978648225	0.41933333333334305
346.12713498711554	0.485
345.70015047214383	0.4683333333333333
345.2731462402119	0.379333333333343
344.8461222899449	0.360666666666657
344.41907861998106	0.3976666666666764
343.9920152289479	0.5939999999999903
343.56493211548786	0.43466666666667153
343.1378292782306	0.5919999999999952
342.71070671581214	0.4739999999999903
342.2835644268599	0.45699999999999513
341.85640241001437	0.425666666666657
341.42922066390713	0.4810000000000097
341.0020191871679	0.48433333333334305
340.5747979784326	0.45066666666665695
340.14755703633097	0.34433333333334304
339.7202963595011	0.5033333333333333
339.2930159465705	0.37533333333332847
338.86571579617737	0.389333333333343
338.4383959069447	0.47766666666667634
338.0110562775131	0.4419999999999952
337.5836969065141	0.4939999999999903
337.15631779257734	0.5473333333333237
336.72891893433024	0.5580000000000048
336.30150033041315	0.5523333333333237
335.8740619794536	0.4836666666666618
335.44660388008316	0.425
335.01912603093155	0.4653333333333285
334.59162843063257	0.31766666666667637
334.164111077818	0.4146666666666715
333.7365739711174	0.3566666666666667
333.3090171091582	0.2260000000000097
332.88144049057644	0.4260000000000097
332.4538441140017	0.5419999999999952
332.02622797806356	0.5089999999999903
331.59859208138937	0.47066666666665696
331.1709364226152	0.5369999999999951
330.7432610003664	0.43833333333333335
330.31556581327675	0.465
329.8878508599694	0.4363333333333382
329.46011613908246	0.5146666666666715
329.0323616492413	0.49166666666666664
328.6045873890776	0.5413333333333382
328.1767933572123	0.4789999999999903
327.7489795522879	0.45666666666666667
327.32114597292536	0.45800000000000485
326.89329261775424	0.5173333333333237
326.4654194853997	0.4939999999999903
326.0375265745001	0.5630000000000048
325.60961388367843	0.4463333333333382
325.1816814115642	0.46366666666666184
324.75372915678065	0.5069999999999951
324.3257571179637	0.42300000000000487
323.8977652937386	0.465
323.46975368273064	0.4726666666666764
323.0417222835672	0.41433333333334305
322.61367109488435	0.46800000000000486
322.18560011530076	0.4313333333333382
321.75750934344825	0.45066666666665695
321.32939877795206	0.46366666666666184
320.9012684174352	0.5069999999999951
320.47311826053584	0.4639999999999903
320.0449483058729	0.4896666666666715
319.6167585520736	0.5116666666666667
319.18854899776323	0.5576666666666764
318.76031964157573	0.4989999999999903
318.332070482132	0.5413333333333382
317.9038015180594	0.45566666666665695
317.4755127479788	0.5266666666666666
317.04720417052425	0.4186666666666618
316.6188757843208	0.5689999999999903
316.1905275879894	0.4986666666666618
315.76215958015536	0.48433333333334305
315.3337717594525	0.590666666666657
314.9053641244995	0.6003333333333285
314.4769366739217	0.5019999999999951
314.0484894063444	0.4913333333333382
313.6200223203948	0.5386666666666619
313.19153541469825	0.5416666666666666
312.7630286878778	0.5869999999999952
312.3345021385521	0.54
311.9059557653574	0.6763333333333382
311.4773895669123	0.5810000000000097
311.04880354184195	0.7339999999999903
310.6201976887631	0.6156666666666569
310.1915720063139	0.6760000000000097
309.76292649310653	0.6463333333333382
309.33426114777274	0.6596666666666715
308.90557596892484	0.6346666666666715
308.4768709551988	0.550666666666657
308.04814610521345	0.5646666666666715
307.61940141759175	0.575
307.1906368909525	0.5423333333333237
306.76185252392514	0.6313333333333382
306.3330483151308	0.6789999999999903
305.9042242631923	0.6973333333333236
305.4753803667263	0.584333333333343
305.0465166243624	0.6296666666666715
304.61763303472367	0.6426666666666764
304.1887295964288	0.6256666666666569
303.7598063080965	0.6916666666666667
303.3308631683563	0.6586666666666618
302.90190017582705	0.6119999999999951
302.4729173291296	0.6610000000000097
302.04391462688477	0.7716666666666666
301.61489206771347	0.6880000000000048
301.18584965024104	0.7256666666666569
300.7567873730861	0.7883333333333333
300.3277052348696	0.7306666666666569
299.89860323421027	0.825666666666657
299.4694813697333	0.7846666666666715
299.04033964005737	0.9346666666666715
298.6111780438057	0.7466666666666667
298.18199657959036	0.8510000000000097
297.752795246041	0.7689999999999902
297.3235740417741	0.8636666666666618
296.8943329654107	0.8436666666666618
296.46507201556506	0.9180000000000048
296.0357911908646	0.8660000000000097
295.6064904899281	0.8583333333333333
295.17716991137206	0.9123333333333237
294.7478294538131	0.9260000000000097
294.3184691158764	0.8936666666666618
293.8890888961806	0.8753333333333285
293.4596887933425	0.9569999999999952
293.03026880597844	0.9893333333333431
292.6008289327138	0.9576666666666763
292.1713691721628	0.8003333333333285
291.7418895229465	0.9030000000000048
291.312389983677	0.8426666666666763
290.8828705529796	0.8526666666666763
290.4533312294709	0.7789999999999903
290.02377201176955	0.7180000000000049
289.59419289848563	0.7596666666666715
289.1645938882465	0.7130000000000049
288.7349749796687	0.7393333333333431
288.3053361713668	0.6403333333333285
287.8756774619528	0.6133333333333333
287.44599885005636	0.6880000000000048
287.0163003342854	0.6486666666666618
286.5865819132608	0.6443333333333431
286.1568435855947	0.5836666666666618
285.7270853499102	0.6160000000000097
285.2973072048218	0.569333333333343
284.8675091489438	0.6376666666666764
284.4376911808905	0.5739999999999903
284.00785329928516	0.6746666666666715
283.577995502742	0.6596666666666715
283.14811778987115	0.6880000000000048
282.7182201592914	0.5753333333333285
282.28830260962343	0.6306666666666569
281.85836513947754	0.5603333333333285
281.42840774747015	0.5876666666666763
280.9984304322157	0.5146666666666715
280.5684331923285	0.6196666666666715
280.13841602642736	0.5773333333333236
279.70837893312665	0.6863333333333382
279.2783219110408	0.6319999999999951
278.84824495877757	0.669333333333343
278.41814807496235	0.6646666666666715
277.98803125820507	0.6680000000000048
277.557894507118	0.5869999999999952
277.12773782031337	0.5546666666666715
276.6975611964142	0.5839999999999903
276.26736463402625	0.6546666666666715
275.8371481317683	0.6069999999999951
275.4069116882459	0.5769999999999952
274.97665530208224	0.5636666666666618
274.54637897188735	0.609333333333343
274.11608269627345	0.5023333333333236
273.68576647384845	0.6233333333333333
273.2554303032375	0.5253333333333284
272.82507418304425	0.560666666666657
272.39469811188513	0.4963333333333382
271.9643020883682	0.5266666666666666
271.533886111112	0.5523333333333237
271.10345017872675	0.4913333333333382
270.67299428982454	0.5046666666666715
270.2425184430133	0.5026666666666764
269.8120226369118	0.5739999999999903
269.38150687013	0.49166666666666664
268.9509711412781	0.48433333333334305
268.52041544896383	0.5213333333333382
268.08983979180596	0.4676666666666764
267.65924416841244	0.4696666666666715
267.2286285773954	0.445
266.7979930173607	0.36266666666667635
266.36733748692905	0.3433333333333333
265.9366619847041	0.37166666666666665
265.50596650929805	0.2823333333333236
265.07525105931876	0.24633333333333818
264.64451563338287	0.27199999999999513
264.21376023009816	0.41199999999999515
263.78298484807476	0.3233333333333333
263.3521894859162	0.3016666666666667
262.9213741422434	0.34933333333334304
262.4905388156598	0.25333333333333335
262.0596835047756	0.3639999999999903
261.62880820819856	0.21866666666666182
261.1979129245432	0.15633333333333818
260.7669976524172	0.16800000000000484
260.3360623904265	0.21199999999999514
259.90510713718317	0.17300000000000484
259.47413189128866	0.14233333333332363
259.04313665136385	0.10233333333332363
258.6121214160123	0.1489999999999903
258.1810861838397	0.1589999999999903
257.75003095345176	0.16699999999999515
257.31895572346724	0.11800000000000485
256.8878604924875	0.1260000000000097
256.45674525912045	0.08933333333334303
256.0256100219717	0.005333333333328483
255.59445477965582	0.02800000000000485
255.1632795307762	-0.029666666666671518
254.73208427393865	0.024666666666671517
254.300869007751	0.04666666666666667
253.8696337308255	0.021666666666666667
253.4383784417657	0.023333333333333334
253.0071031391773	-0.03666666666666667
252.57580782166383	-0.01
252.1444924878419	0.055
251.71315713631068	0.05433333333334303
251.28180176568023	0.0160000000000097
250.85042637454976	-0.009333333333343035
250.41903096153368	-0.012666666666676369
249.9876155252377	0.06333333333333334
249.55618006426315	0.04866666666666181
249.12472457721364	0.058333333333333334
248.69324906270137	0.06266666666667636
248.26175351933205	-0.007666666666676368
247.83023794570707	0.06266666666667636
247.3987023404278	0.14066666666665698
246.96714670210864	0.06199999999999515
246.53557102935096	0.07
246.10397532076047	0.12366666666666182
245.67235957493423	0.05800000000000485
245.24072379048877	0.07133333333333819
244.8090679660212	0.04733333333332363
244.37739210013714	0.019666666666671516
243.94569619143803	0.05533333333332848
243.51398023853605	-0.021000000000009702
243.0822442400283	0.01800000000000485
242.65048819452264	0.026000000000009703
242.2187121006139	0.006666666666666667
241.78691595691873	0.05533333333332848
241.35509976203193	0.10066666666665697
240.9232635145614	0.0910000000000097
240.49140721310636	0.10100000000000971
240.059530856266	0.03733333333332363
239.62763444265474	0.03766666666667637
239.1957179708696	0.04800000000000485
238.76378143951197	0.021666666666666667
238.33182484718105	-0.012666666666676369
237.89984819248693	-0.012666666666676369
237.46785147403094	0.049333333333343034
237.03583469041013	0.08533333333332849
236.6037978402259	0.06266666666667636
236.1717409220883	-0.0010000000000097012
235.7396639345922	-0.058666666666661815
235.30756687634332	-0.10933333333334304
234.87544974593433	-0.08066666666665696
234.44331254197968	0.0010000000000097012
234.01115526307206	0.05466666666667152
233.57897790781496	0.08266666666667637
233.1467804748055	0.027666666666676366
232.7145629626515	-0.03800000000000485
232.28232536995006	0.022333333333323633
231.8500676953025	0.07766666666667636
231.41778993730375	0.06566666666665696
230.98549209456385	0.0839999999999903
230.55317416567763	0.049666666666671515
230.12083614924651	-0.05800000000000485
229.68847804386536	0.09766666666667637
229.2560998481399	0.05733333333332363
228.82370156066932	-0.008666666666661816
228.39128318005285	0.021333333333338183
227.95884470488318	-0.011333333333338184
227.5263861337704	-0.04666666666666667
227.09390746530931	0.10699999999999515
226.66140869809703	0.044333333333343036
226.22888983073057	-0.09933333333334303
225.79635086181347	0.051000000000009704
225.36379178994494	-0.01199999999999515
224.93121261371985	-0.030333333333328483
224.4986133317331	-0.09066666666665696
224.06599394259257	0.011333333333338184
223.63335444489314	-0.005
223.20069483722963	-0.016333333333338185
222.76801511819698	-0.002666666666676368
222.33531528640088	0.050333333333328484
221.9025953404362	0.026000000000009703
221.4698552788978	0.029333333333343033
221.0370951003849	-0.08766666666667637
220.6043148034924	0.10133333333333819
220.17151438682168	-0.04666666666666667
219.73869384896756	-0.01199999999999515
219.30585318852715	-0.06166666666666667
218.87299240409308	-0.08800000000000485
218.440111494269	-0.11633333333333819
218.0072104576475	0.07733333333332364
217.5742892928257	0.01699999999999515
217.1413479983941	0.02266666666667637
216.70838657295846	0.006333333333338184
216.27540501510927	0.0160000000000097
215.8424033234436	0.016333333333338185
215.40938149655196	-0.008333333333333333
214.97633953303793	0.011666666666666667
214.5432774314942	-0.03699999999999515
214.11019519051567	0.04566666666665697
213.67709280869065	-0.019333333333343035
213.24397028462707	0.034666666666671515
212.8108276169111	0.020666666666656966
212.37766480413984	0.030333333333328483
211.9444818449016	0.07100000000000971
211.51127873780212	0.034333333333343034
211.0780554814319	-0.025666666666656967
210.64481207438155	-0.016666666666666666
210.21154851524156	0.020666666666656966
209.77826480261763	0.02699999999999515
209.34496093509603	0.008666666666661816
208.91163691127156	-0.020666666666656966
208.47829272973476	0.03966666666667152
208.0449283890849	-0.0019999999999951493
207.6115438879125	0.003999999999990299
207.17813922481238	0.059333333333343036
206.74471439836861	-0.03666666666666667
206.31126940718693	0.025
205.87780424985567	0.02
