768.7678709118609	0.2816666666666667
768.3601795435875	-0.051666666666666666
767.9524697795084	0.21133333333333817
767.5447416183789	0.15166666666666667
767.1369950589522	0.21366666666666181
766.7292300999793	0.12133333333333818
766.321446740222	0.18933333333334304
765.9136449784291	0.17266666666667638
765.5058248133583	0.16166666666666665
765.0979862437583	0.08266666666667637
764.6901292683908	0.12466666666667152
764.2822538860049	0.15600000000000971
763.8743600953579	0.15366666666666182
763.4664478951966	0.15166666666666667
763.0585172842827	0.17033333333332848
762.6505682613673	0.09433333333334304
762.2426008252036	0.09699999999999515
761.8346149745404	0.1239999999999903
761.4266107081372	0.17433333333334303
761.0185880247452	0.09233333333332364
760.6105469231176	0.20166666666666666
760.202487402003	0.23166666666666666
759.7944094601592	0.24199999999999514
759.3863130963391	0.2539999999999903
758.9781983092939	0.22199999999999515
758.5700650977723	0.22366666666666182
758.1619134605319	0.1510000000000097
757.7537433963257	0.1810000000000097
757.3455549039006	0.22566666666665697
756.9373479820074	0.18166666666666667
756.529122629406	0.12266666666667637
756.1208788448427	0.12466666666667152
755.7126166270709	0.1989999999999903
755.3043359748374	0.14666666666666667
754.8960368869017	0.115
754.4877193620104	0.16733333333332362
754.0793833989146	0.08833333333333333
753.671028996363	0.11533333333332849
753.2626561531134	0.07766666666667636
752.8542648679122	0.10666666666666667
752.4458551395104	0.21800000000000486
752.0374269666613	0.14966666666667153
751.6289803481072	0.08633333333333819
751.2205152826077	0.0610000000000097
750.8120317689096	0.08033333333332848
750.4035298057637	0.055
749.9950093919146	0.12266666666667637
749.586470526122	-0.019666666666671516
749.1779132071304	0.09066666666665696
748.7693374336906	0.13733333333332362
748.3607432045474	0.14199999999999516
747.9521305184559	0.11233333333332363
747.5434993741673	0.15166666666666667
747.134849770426	0.1310000000000097
746.7261817059784	0.15699999999999514
746.3174951795825	0.09633333333333818
745.9087901899825	0.1539999999999903
745.500066735925	0.06733333333332363
745.091324816159	0.12233333333332364
744.6825644294398	0.15633333333333818
744.2737855745097	0.23699999999999516
743.8649882501174	0.1260000000000097
743.4561724550099	0.20033333333332848
743.0473381879422	0.1436666666666618
742.6384854476568	0.08233333333332363
742.2296142329003	0.14
741.8207245424215	0.11333333333333333
741.4118163749715	0.10433333333334303
741.002889729297	0.10033333333332849
740.5939446041443	0.11433333333334303
740.1849809982541	0.10433333333334303
739.7759989103856	0.1546666666666715
739.3669983392814	0.1610000000000097
738.957979283686	0.018333333333333333
738.5489417423437	0.06800000000000485
738.13988571401	0.12633333333333818
737.730811197425	0.057666666666676365
737.3217181913398	0.052333333333323635
736.9126066944921	0.09366666666666182
736.5034767056397	0.1489999999999903
736.0943282235205	0.052333333333323635
735.6851612468854	0.08933333333334303
735.2759757744748	0.06966666666667151
734.8667718050416	0.11733333333332363
734.4575493373283	0.13833333333333334
734.0483083700792	0.07633333333333818
733.6390489020412	0.16933333333334302
733.2297709319565	0.23166666666666666
732.8204744585761	0.1360000000000097
732.4111594806445	0.14066666666665698
732.0018259969019	0.13566666666665697
731.5924740060949	0.0160000000000097
731.1831035069702	0.11733333333332363
730.7737144982744	0.08966666666667152
730.3643069787478	0.12066666666665697
729.9548809471348	0.07533333333332848
729.5454364021842	0.11866666666666181
729.1359733426384	0.145
728.7264917672396	0.09333333333333334
728.3169916747303	0.12333333333333334
727.9074730638592	0.05466666666667152
727.4979359333709	0.1253333333333285
727.0883802820032	0.07100000000000971
726.6788061085008	0.025333333333328482
726.2692134116146	0.04866666666666181
725.8596021900805	0.06933333333334303
725.449972442645	0.06966666666667151
725.0403241680441	0.05
724.630657365033	0.0739999999999903
724.2209720323476	0.1296666666666715
723.8112681687303	0.18300000000000485
723.4015457729232	0.19166666666666668
722.9918048436731	0.11033333333332848
722.5820453797202	0.16566666666665697
722.1722673798067	0.18066666666665696
721.7624708426707	0.17199999999999516
721.3526557670632	0.09566666666665696
720.94282215172	0.13566666666665697
720.5329699953855	0.17800000000000485
720.1230992967957	0.13233333333332364
719.7132100547013	0.09300000000000486
719.3033022678385	0.05733333333332363
718.8933759349494	0.0410000000000097
718.4834310547741	0.11666666666666667
718.0734676260573	0.10866666666666182
717.6634856475368	0.011333333333338184
717.2534851179572	0.10300000000000485
716.8434660360522	0.043000000000004854
716.4334284005727	0.044333333333343036
716.0233722102523	0.11133333333333818
715.6132974638334	0.1339999999999903
715.2032041600562	0.05800000000000485
714.7930922976565	0.11366666666666182
714.3829618753853	0.12866666666666182
713.9728128919741	0.14666666666666667
713.562645346165	0.10166666666666667
713.1524592366941	0.07333333333333333
712.7422545623102	0.2773333333333236
712.3320313217469	0.1436666666666618
711.9217895137442	0.16699999999999515
711.5115291370382	0.1760000000000097
711.1012501903754	0.1510000000000097
710.6909526724916	0.07566666666665696
710.2806365821249	0.16866666666666183
709.870301918011	0.12699999999999514
709.4599486788967	0.17800000000000485
709.0495768635155	0.0660000000000097
708.6391864706077	0.11266666666667637
708.228777498909	0.17966666666667153
707.8183499471618	0.11466666666667152
707.4079038141018	0.11300000000000485
706.9974390984672	0.2
706.5869557989937	0.06333333333333334
706.1764539144258	0.07466666666667152
705.7659334434971	0.09466666666667152
705.3553943849456	0.0016666666666666668
704.9448367375052	0.015
704.5342604999221	0.10699999999999515
704.123665670926	0.07666666666666666
703.7130522492591	0.10566666666665697
703.3024202336507	0.13766666666667637
702.8917696228474	0.18066666666665696
702.4811004155808	0.0660000000000097
702.0704126105888	0.12666666666666668
701.6597062066053	0.145
701.2489812023722	0.10066666666665697
700.8382375966235	0.135
700.4274753880926	0.1910000000000097
700.0166945755177	0.17766666666667638
699.6058951576366	0.11800000000000485
699.1950771331854	0.13366666666666183
698.7842405008996	0.09833333333333333
698.3733852595066	0.0910000000000097
697.962511407755	0.1386666666666618
697.5516189443744	0.10366666666666181
697.1407078681002	-0.02300000000000485
696.7297781776643	0.08333333333333333
696.3188298718089	0.024666666666671517
695.9078629492653	0.06300000000000484
695.4968774087696	0.0460000000000097
695.0858732490532	0.058666666666661815
694.6748504688518	0.12199999999999515
694.2638090669034	0.1253333333333285
693.8527490419395	0.1810000000000097
693.4416703926984	0.11333333333333333
693.0305731179045	0.19766666666667637
692.6194572163027	0.035666666666656965
692.2083226866246	0.06366666666666182
691.7971695276012	0.1360000000000097
691.3859977379644	0.1589999999999903
690.9748073164542	0.10366666666666181
690.563598261802	0.08600000000000971
690.1523705727373	0.19866666666666183
689.7411242479958	0.13766666666667637
689.3298592863133	0.16766666666667637
688.9185756864193	0.15333333333333332
688.5072734470516	0.21566666666665696
688.095952566933	0.12266666666667637
687.6846130448081	0.03666666666666667
687.273254879404	0.14466666666667152
686.8618780694522	0.007333333333323632
686.4504826136841	0.095
686.0390685108379	0.08833333333333333
685.6276357596405	0.08566666666665697
685.216184358828	0.11133333333333818
684.804714307125	0.085
684.3932256032718	0.03300000000000485
683.981718245998	-0.01800000000000485
683.5701922340304	0.08633333333333819
683.1586475661029	0.165
682.747084240951	0.09833333333333333
682.3355022573022	0.2260000000000097
681.9239016138878	0.1896666666666715
681.5122823094371	0.1289999999999903
681.100644342686	0.13433333333334305
680.6889877123616	0.15866666666666182
680.2773124171954	0.25166666666666665
679.8656184559145	0.22300000000000486
679.4539058272569	0.12666666666666668
679.0421745299477	0.15833333333333333
678.6304245627183	0.1486666666666618
678.2186559242936	0.07366666666666181
677.8068686134138	0.1596666666666715
677.395062628804	0.19766666666667637
676.9832379691933	0.23199999999999515
676.5713946333069	0.058333333333333334
676.1595326198826	0.15300000000000485
675.7476519276477	0.19666666666666666
675.3357525553292	0.15166666666666667
674.9238345016566	0.18800000000000486
674.5118977653547	0.1239999999999903
674.0999423451638	0.1713333333333382
673.6879682398022	0.1596666666666715
673.2759754480059	0.23233333333332362
672.8639639684933	0.33800000000000485
672.4519338000044	0.22300000000000486
672.0398849412645	0.21866666666666182
671.6278173909984	0.3160000000000097
671.2157311479332	0.215
670.8036262108026	0.30733333333332363
670.3915025783316	0.2086666666666618
669.9793602492473	0.19833333333333333
669.5671992222748	0.17066666666665697
669.1550194961476	0.23466666666667152
668.7428210695929	0.14433333333334303
668.3306039413335	0.0960000000000097
667.9183681100944	0.06666666666666667
667.5061135746137	0.023666666666661815
667.0938403336097	0.1646666666666715
666.6815483858096	0.21766666666667636
666.2692377299405	0.1910000000000097
665.856908364734	0.17199999999999516
665.4445602889106	0.17966666666667153
665.0321935011997	0.25533333333332847
664.6198080003242	0.19133333333333818
664.2074037850176	0.2110000000000097
663.7949808539984	0.21166666666666667
663.3825392059981	0.27233333333332366
662.9700788397353	0.20733333333332363
662.5575997539434	0.13433333333334305
662.1451019473432	0.1596666666666715
661.732585418664	0.1589999999999903
661.3200501666242	0.1713333333333382
660.9074961899598	0.17466666666667152
660.494923487387	0.2203333333333285
660.0823320576351	0.15666666666666668
659.6697218994246	0.18733333333332364
659.2570930114873	0.1739999999999903
658.8444453925414	0.13066666666665697
658.4317790413164	0.1210000000000097
658.0190939565284	0.165
657.6063901369134	0.17766666666667638
657.1936675811899	0.1889999999999903
656.7809262880805	0.11866666666666181
656.3681662563105	0.18300000000000485
655.9553874846001	0.15300000000000485
655.5425899716812	0.17300000000000484
655.1297737162741	0.17266666666667638
654.7169387170998	0.17199999999999516
654.3040849728786	0.10800000000000486
653.8912124823422	0.2210000000000097
653.4783212442112	0.15766666666667636
653.0654112572063	0.19066666666665696
652.6524825200479	0.22300000000000486
652.2395350314655	0.22233333333332364
651.8265687901776	0.2203333333333285
651.4135837949091	0.23199999999999515
651.0005800443785	0.20666666666666667
650.5875575373129	0.1860000000000097
650.1745162724332	0.18433333333334304
649.7614562484596	0.17633333333333817
649.348377464113	0.2336666666666618
648.9352799181206	0.22199999999999515
648.5221636092008	0.1889999999999903
648.1090285360741	0.20433333333334303
647.6958746974614	0.225
647.2827020920896	0.17233333333332362
646.8695107186775	0.17233333333332362
646.4563005759431	0.16033333333332847
646.0430716626075	0.2336666666666618
645.6298239773976	0.21300000000000485
645.2165575190319	0.21466666666667153
644.8032722862267	0.29699999999999516
644.3899682777028	0.1413333333333382
643.9766454921893	0.12166666666666667
643.5633039283982	0.2663333333333382
643.1499435850546	0.20733333333332363
642.7365644608705	0.20199999999999516
642.3231665545771	0.26300000000000484
641.9097498648889	0.18366666666666182
641.4963143905242	0.185
641.0828601302013	0.25966666666667154
640.6693870826476	0.21633333333333818
640.2558952465771	0.15933333333334304
639.8423846207105	0.22433333333334304
639.4288552037599	0.15133333333333818
639.0153069944565	0.13800000000000484
638.6017399915146	0.14633333333333817
638.1881541936483	0.12766666666667636
637.7745495995827	0.1503333333333285
637.3609262080296	0.16166666666666665
636.9472840177161	0.20066666666665697
636.5336230273545	0.13033333333332847
636.119943235665	0.13033333333332847
635.7062446413621	0.33233333333332366
635.2925272431705	0.23666666666666666
634.8787910398067	0.11833333333333333
634.4650360299848	0.21266666666667636
634.0512622124211	0.2966666666666667
633.6374695858384	0.2260000000000097
633.2236581489551	0.20166666666666666
632.8098279004832	0.1313333333333382
632.3959788391412	0.22066666666665696
631.9821109636476	0.16
631.5682242727231	0.17666666666666667
631.1543187650774	0.2436666666666618
630.7403944394289	0.2786666666666618
630.3264512944984	0.23433333333334302
629.9124893289999	0.2810000000000097
629.4985085416498	0.2923333333333236
629.08450893116	0.22199999999999515
628.6704904962556	0.24066666666665695
628.2564532356485	0.16166666666666665
627.8423971480548	0.22433333333334304
627.4283222321847	0.15633333333333818
627.0142284867629	0.24300000000000485
626.6001159105014	0.17666666666666667
626.1859845021144	0.2010000000000097
625.771834260316	0.254333333333343
625.3576651838268	0.22733333333332365
624.9434772713589	0.24199999999999514
624.5292705216264	0.2389999999999903
624.1150449333433	0.24466666666667153
623.7008005052281	0.2060000000000097
623.2865372359929	0.26566666666665695
622.872255124354	0.15300000000000485
622.457954169021	0.22066666666665696
622.0436343687147	0.11433333333334303
621.629295722145	0.10133333333333819
621.2149382280302	0.08433333333334303
620.8005618850757	0.22566666666665697
620.3861666920067	0.16666666666666666
619.9717526475306	0.2310000000000097
619.5573197503596	0.09300000000000486
619.1428679992077	0.15833333333333333
618.7283973927935	0.16666666666666666
618.3139079298264	0.1486666666666618
617.8993996090189	0.23966666666667152
617.4848724290849	0.15633333333333818
617.0703263887341	0.17666666666666667
616.6557614866873	0.2519999999999952
616.2411777216521	0.18633333333333818
615.8265750923404	0.21699999999999514
615.411953597462	0.22199999999999515
614.9973132357354	0.2560000000000097
614.5826540058705	0.19733333333332362
614.1679759065792	0.21800000000000486
613.7532789365712	0.19666666666666666
613.3385630945629	0.215
612.9238283792641	0.26566666666665695
612.5090747893845	0.18733333333332364
612.0943023236341	0.16166666666666665
611.6795109807312	0.24266666666667636
611.2647007593813	0.29766666666667635
610.8498716582986	0.25666666666666665
610.4350236761907	0.2536666666666618
610.0201568117717	0.3139999999999903
609.6052710637535	0.22266666666667637
609.1903664308418	0.19366666666666182
608.7754429117483	0.24199999999999514
608.3605005051894	0.26
607.9455392098686	0.2726666666666764
607.5305590245018	0.38800000000000484
607.1155599477905	0.305666666666657
606.700541978453	0.3560000000000097
606.2855051151969	0.2973333333333236
605.8704493567299	0.3160000000000097
605.4553747017618	0.31533333333332847
605.0402811490067	0.25833333333333336
604.6251686971679	0.20533333333332848
604.2100373449596	0.18699999999999514
603.794887091085	0.14466666666667152
603.3797179342605	0.11833333333333333
602.9645298731892	0.2036666666666618
602.5493229065834	0.18733333333332364
602.1340970331482	0.26166666666666666
601.7188522515959	0.16
601.3035885606339	0.2139999999999903
600.8883059589721	0.24866666666666182
600.4730044453094	0.3289999999999903
600.0576840183686	0.2696666666666715
599.6423446768466	0.3326666666666764
599.2269864194574	0.2389999999999903
598.8116092449044	0.23333333333333334
598.3962131518952	0.165
597.9807981391417	0.1410000000000097
597.5653642053495	0.17633333333333817
597.1499113492239	0.2210000000000097
596.7344395694705	0.2753333333333285
596.3189488648012	0.2889999999999903
595.9034392339214	0.19333333333333333
595.4879106755388	0.2203333333333285
595.0723631883525	0.2013333333333382
594.6567967710808	0.24333333333333335
594.2412114224227	0.19366666666666182
593.825607141088	0.21433333333334303
593.4099839257777	0.19366666666666182
592.9943417752039	0.20300000000000484
592.57868068807	0.2889999999999903
592.1630006630813	0.19566666666665697
591.7473016989411	0.195
591.3315837943614	0.15133333333333818
590.9158469480456	0.17233333333332362
590.5000911586968	0.16566666666665697
590.0843164250163	0.18866666666666182
589.6685227457202	0.21866666666666182
589.2527101195077	0.2013333333333382
588.8368785450818	0.285
588.4210280211462	0.24433333333334303
588.0051585464104	0.2646666666666715
587.5892701195799	0.24466666666667153
587.1733627393536	0.24033333333332849
586.7574364044372	0.22766666666667637
586.341491113538	0.2460000000000097
585.9255268653596	0.1786666666666618
585.5095436586031	0.22699999999999515
585.0935414919694	0.235
584.6775203641728	0.10366666666666181
584.26148027391	0.11333333333333333
583.8454212198844	0.2453333333333285
583.4293432007971	0.23233333333332362
583.0132462153579	0.1296666666666715
582.5971302622678	0.14666666666666667
582.1809953402259	0.11566666666665697
581.7648414479354	0.17466666666667152
581.3486685841062	0.13833333333333334
580.9324767474351	0.16
580.5162659366252	0.2683333333333333
580.1000361503757	0.15
579.6837873873984	0.06966666666667151
579.267519646388	0.15566666666665696
578.8512329260478	0.15666666666666668
578.4349272250832	0.15366666666666182
578.0186025421867	0.13666666666666666
577.6022588760703	0.2196666666666715
577.1858962254329	0.1296666666666715
576.7695145889734	0.28066666666665696
576.3531139653909	0.2239999999999903
575.9366943533951	0.16133333333333819
575.5202557516828	0.2663333333333382
575.1037981589529	0.17433333333334303
574.6873215739046	0.2563333333333382
574.2708259952475	0.24666666666666667
573.854311421674	0.300666666666657
573.4377778518897	0.1386666666666618
573.0212252845891	0.09633333333333818
572.6046537184778	0.15833333333333333
572.1880631522547	0.17666666666666667
571.7714535846209	0.17466666666667152
571.3548250142687	0.23300000000000484
570.9381774399104	0.18733333333332364
570.5215108602383	0.17466666666667152
570.1048252739535	0.18833333333333332
569.6881206797506	0.2260000000000097
569.2713970763372	0.23199999999999515
568.854654462408	0.11300000000000485
568.4378928366642	0.1736666666666618
568.0211121978002	0.17233333333332362
567.6043125445195	0.14733333333332363
567.187493875521	0.17300000000000484
566.7706561895014	0.17766666666667638
566.3537994851577	0.14666666666666667
565.9369237611908	0.22
565.5200290162996	0.1210000000000097
565.1031152491812	0.11199999999999515
564.6861824585301	0.15366666666666182
564.2692306430516	0.18
563.8522598014383	0.18433333333334304
563.4352699323913	0.305
563.0182610345986	0.30133333333333817
562.6012331067724	0.2563333333333382
562.1841861476007	0.29300000000000487
561.7671201557823	0.19533333333332847
561.3500351300121	0.12433333333334304
560.9329310689911	0.165
560.515807971416	0.21566666666665696
560.0986658359838	0.19433333333334304
559.6815046613867	0.2746666666666715
559.2643244463217	0.32300000000000484
558.847125189492	0.2846666666666715
558.4299068895878	0.15300000000000485
558.012669545306	0.23333333333333334
557.5954131553412	0.15133333333333818
557.1781377183946	0.1689999999999903
556.7608432331607	0.22766666666667637
556.343529698332	0.20699999999999516
555.926197112601	0.19433333333334304
555.5088454746709	0.16733333333332362
555.0914747832342	0.225
554.6740850369855	0.19766666666667637
554.2566762346152	0.285
553.8392483748285	0.2653333333333285
553.4218014563138	0.36833333333333335
553.0043354777655	0.155
552.5868504378763	0.345
552.1693463353471	0.24666666666666667
551.7518231688704	0.2489999999999903
551.3342809371366	0.31466666666667154
550.91671963884	0.31166666666666665
550.49913927268	0.21433333333334303
550.0815398373467	0.345
549.6639213315347	0.3739999999999903
549.2462837539342	0.35633333333333816
548.8286271032442	0.3169999999999952
548.4109513781551	0.2519999999999952
547.9932565773614	0.25333333333333335
547.5755426995535	0.275
547.1578097434281	0.30333333333333334
546.7400577076776	0.27566666666665696
546.3222865909923	0.2986666666666618
545.9044963920649	0.4336666666666618
545.4866871095918	0.3426666666666764
545.0688587422615	0.5066666666666667
544.6510112887704	0.3586666666666618
544.2331447478026	0.2939999999999903
543.8152591180612	0.19433333333334304
543.39735439823	0.2786666666666618
542.979430587006	0.23466666666667152
542.5614876830728	0.25566666666665694
542.1435256851336	0.2676666666666764
541.7255445918723	0.34300000000000486
541.3075444019836	0.3839999999999903
540.8895251141511	0.310666666666657
540.471486727076	0.4646666666666715
540.0534292394465	0.38866666666666183
539.6353526499506	0.45866666666666184
539.217256957283	0.4216666666666667
538.7991421601253	0.3953333333333285
538.3810082571806	0.4310000000000097
537.962855247133	0.5310000000000097
537.5446831286725	0.4539999999999903
537.1264919004875	0.49199999999999516
536.7082815612724	0.5033333333333333
536.2900521097155	0.4513333333333382
535.871803544509	0.44466666666667154
535.4535358643325	0.5313333333333382
535.0352490678893	0.6103333333333285
534.6169431538631	0.5016666666666667
534.19861812094	0.5836666666666618
533.78027396781	0.5716666666666667
533.361910693168	0.5660000000000097
532.9435282956977	0.5423333333333237
532.5251267740915	0.5319999999999951
532.1067061270311	0.535666666666657
531.6882663532132	0.5680000000000048
531.2698074513237	0.705
530.8513294200487	0.7713333333333382
530.4328322580762	0.604333333333343
530.0143159641009	0.7139999999999903
529.5957805368043	0.6339999999999903
529.1772259748768	0.6836666666666619
528.7586522770022	0.7169999999999952
528.3400594418729	0.7019999999999952
527.9214474681769	0.7189999999999903
527.5028163546002	0.835
527.0841660998245	0.8136666666666618
526.6654967025466	0.8496666666666716
526.2468081614481	0.835
525.8281004752192	0.8903333333333285
525.4093736425393	0.99
524.9906276621032	0.9966666666666667
524.5718625325945	1.0189999999999904
524.1530782526993	1.008000000000005
523.7342748211013	1.0019999999999951
523.3154522364929	1.1130000000000049
522.896610497558	1.1716666666666666
522.4777496029803	1.2180000000000049
522.0588695514436	1.2316666666666667
521.6399703416404	1.260666666666657
521.2210519722521	1.2676666666666763
520.8021144419671	1.4363333333333381
520.3831577494668	1.460666666666657
519.9641818934351	1.4966666666666666
519.5451868725623	1.6396666666666715
519.1261726855342	1.6936666666666618
518.7071393310304	1.8033333333333332
518.2880868077347	1.8566666666666667
517.8690151143393	1.9926666666666764
517.449924249526	2.2733333333333334
517.0308142119765	2.3103333333333285
516.6116850003721	2.35899999999999
516.1925366134055	2.605666666666657
515.7733690497562	2.878666666666662
515.3541823081079	3.0446666666666715
514.934976387142	3.1783333333333332
514.5157512855491	3.4713333333333383
514.0965070020062	3.8156666666666568
513.6772435352017	4.020666666666657
513.2579608838126	4.391999999999995
512.8386590465294	4.823666666666662
512.4193380220314	5.218333333333334
511.99999780900464	5.648333333333333
511.580638406122	6.23
511.1612598120781	6.868666666666662
510.7418620255524	7.462333333333324
510.3224450452243	8.030333333333328
509.9030088697755	8.757333333333323
509.48355349789404	9.496999999999995
509.06407892825723	10.228333333333333
508.6445851595488	11.000333333333328
508.22507219044604	11.748000000000005
507.8055400196393	12.35100000000001
507.3859886458058	13.068333333333333
506.96641806762716	13.531666666666666
506.5468282837806	13.689666666666671
506.12721929295435	13.774333333333344
505.7075910938277	13.846666666666666
505.2879436850803	13.643333333333333
504.8682770653892	13.134666666666671
504.4485912334448	12.515
504.02888618792	11.951333333333338
503.6091619274987	11.433666666666662
503.1894184508558	10.499333333333343
502.76965575668174	9.820333333333329
502.3498738436494	9.179333333333343
501.93007271044036	8.469666666666672
501.51025235573195	7.816999999999995
501.09041277821007	7.29
500.67055397655207	6.815
500.25067594943516	6.177333333333324
499.8307786955409	5.788000000000005
499.41086221354453	5.360333333333329
498.9909265021319	4.950333333333329
498.5709715599803	4.715333333333328
498.15099738576487	4.30899999999999
497.73100397816495	4.064666666666671
497.31099133586446	3.7253333333333285
496.89095945753843	3.5203333333333284
496.4709083418663	3.2636666666666616
496.050837987521	3.161999999999995
495.6307483931907	2.9626666666666766
495.21063955754823	2.9023333333333237
494.790511479271	2.6976666666666764
494.37036415703403	2.5439999999999903
493.95019758952327	2.379333333333343
493.53001177541165	2.319333333333343
493.1098067133765	2.134333333333343
492.68958240209287	2.0789999999999904
492.26933884024237	1.8973333333333235
491.8490760265023	1.8846666666666716
491.42879395954776	1.7546666666666715
491.0084926380517	1.6903333333333286
490.5881720607	1.6896666666666715
490.1678322261635	1.6316666666666666
489.7474731331217	1.600666666666657
489.32709478024304	1.534333333333343
488.9066971662135	1.5760000000000096
488.48628028970614	1.4563333333333381
488.0658441493982	1.3736666666666617
487.6453887439581	1.3680000000000048
487.224914072072	1.2330000000000048
486.8044201324106	1.2466666666666666
486.38390692364896	1.2196666666666716
485.96337444446226	1.203000000000005
485.5428226935299	1.1613333333333382
485.1222516695248	1.0853333333333284
484.7016613711199	0.9539999999999903
484.28105179699037	0.9219999999999952
483.86042294581335	1.0406666666666569
483.43977481626627	1.009333333333343
483.01910740701766	0.9893333333333431
482.59842071674257	1.0033333333333334
482.1777147441205	0.9969999999999951
481.75698948782224	1.055666666666657
481.33624494652287	1.0239999999999903
480.91548111889534	0.9733333333333334
480.4946980036104	0.9326666666666764
480.0738955993496	0.8730000000000049
479.65307390478165	0.8876666666666764
479.2322329185816	0.8993333333333431
478.81137263941804	0.8113333333333382
478.3904930659726	0.7703333333333284
477.9695941969139	0.8769999999999951
477.5486760309148	0.7930000000000048
477.127738566644	0.7473333333333236
476.70678180278304	0.7623333333333236
476.28580573800053	0.7063333333333381
475.86481037096945	0.780666666666657
475.44379570035835	0.7269999999999951
475.0227617248467	0.6963333333333381
474.6017084431009	0.7119999999999952
474.1806358537961	0.7536666666666618
473.75954395560086	0.7873333333333237
473.3384327471903	0.7483333333333333
472.91730222723737	0.7689999999999902
472.4961523944085	0.7316666666666667
472.07498324737657	0.6186666666666618
471.6537947848168	0.7176666666666763
471.2325870053998	0.6789999999999903
470.81135990779217	0.5796666666666715
470.3901134906646	0.6263333333333382
469.9688477526965	0.7080000000000048
469.54756269254995	0.7053333333333285
469.12625830890016	0.6516666666666666
468.7049346004113	0.6916666666666667
468.28359156576283	0.635
467.86222920361905	0.6576666666666764
467.4408475126529	0.5669999999999952
467.0194464915286	0.5546666666666715
466.5980261389256	0.45300000000000484
466.176586453506	0.4853333333333285
465.75512743394273	0.4676666666666764
465.3336490789022	0.550666666666657
464.91215138705746	0.5286666666666618
464.490634357077	0.425666666666657
464.0690979876294	0.46066666666665695
463.647542277379	0.4639999999999903
463.22596722500305	0.5093333333333431
462.80437282916796	0.49466666666667153
462.3827590885402	0.5539999999999903
461.96112600178395	0.520666666666657
461.5394735675766	0.490666666666657
461.1178017845845	0.455
460.69611065147194	0.5276666666666764
460.2744001669097	0.3996666666666715
459.8526703295598	0.45666666666666667
459.4309211380996	0.42333333333333334
459.00915259119125	0.4686666666666618
458.58736468750317	0.3869999999999951
458.1655574256997	0.39233333333332365
457.74373080445605	0.439333333333343
457.321884822432	0.3510000000000097
456.9000194782984	0.4060000000000097
456.47813477071736	0.430666666666657
456.0562306983639	0.3819999999999952
455.634307259898	0.49666666666666665
455.2123644539904	0.39300000000000485
454.7904022793011	0.3946666666666715
454.36842073450293	0.36966666666667153
453.9464198182602	0.34833333333333333
453.5243995292416	0.4023333333333236
453.1023598661026	0.3186666666666618
452.6803008275226	0.27566666666665696
452.2582224121617	0.36833333333333335
451.83612461868404	0.3663333333333382
451.41400744575174	0.4460000000000097
450.9918708920399	0.38466666666667154
450.56971495620627	0.315
450.1475396369195	0.3539999999999903
449.72534493283945	0.23833333333333334
449.3031308426391	0.3346666666666715
448.88089736497835	0.30699999999999517
448.4586444985215	0.38466666666667154
448.03637224192846	0.235
447.6140805938743	0.34699999999999515
447.19176955301896	0.41
446.7694391180224	0.3869999999999951
446.347089287551	0.36133333333333817
445.9247200602713	0.384333333333343
445.50233143484525	0.3046666666666715
445.079923409935	0.28199999999999514
444.6574959842027	0.3039999999999903
444.2350491563169	0.25466666666667154
443.8125829249397	0.23833333333333334
443.390097288731	0.2960000000000097
442.9675922463529	0.33666666666666667
442.54506779647625	0.30533333333332846
442.12252393775657	0.27933333333334304
441.69996066885807	0.2613333333333382
441.277377988443	0.27199999999999513
440.85477589517325	0.2733333333333333
440.43215438771324	0.24033333333332849
440.00951346472505	0.24166666666666667
439.58685312487074	0.3326666666666764
439.16417336680587	0.3283333333333333
438.7414741892034	0.3039999999999903
438.31875559071676	0.23199999999999515
437.8960175700124	0.37333333333333335
437.4732601257437	0.3496666666666715
437.05048325658146	0.19866666666666183
436.62768696118343	0.405
436.2048712382074	0.34566666666665696
435.7820360863154	0.44166666666666665
435.3591815041739	0.444333333333343
434.9363074904384	0.43766666666667636
434.51341404377115	0.3586666666666618
434.09050116282765	0.3436666666666618
433.6675688462765	0.2973333333333236
433.24461709277546	0.3339999999999903
432.8216459009802	0.35566666666665697
432.3986552695505	0.31233333333332364
431.9756451971529	0.3403333333333285
431.55261568244293	0.3636666666666618
431.12956672408274	0.4539999999999903
430.70649832072354	0.4033333333333333
430.28341047103396	0.42699999999999516
429.8603031736717	0.35266666666667634
429.43717642729246	0.43266666666667636
429.0140302305539	0.430666666666657
428.5908645821203	0.37800000000000483
428.1676794806494	0.36533333333332846
427.74447492479686	0.44266666666667637
427.3212509132182	0.4526666666666764
426.89800744458205	0.3596666666666715
426.4747445175375	0.4810000000000097
426.05146213074664	0.48266666666667635
425.6281602828629	0.38033333333332847
425.20483897255264	0.4386666666666618
424.7814981984672	0.4989999999999903
424.3581379592665	0.4589999999999903
423.9347582536018	0.42266666666667635
423.5113590801394	0.5186666666666618
423.0879404375329	0.45933333333334303
422.66450232444	0.3189999999999903
422.24104473951405	0.39866666666666184
421.8175676814172	0.4186666666666618
421.39407114880504	0.38066666666665694
420.97055514033093	0.38866666666666183
420.54701965465495	0.44466666666667154
420.1234646904282	0.41433333333334305
419.6998902463128	0.42433333333334305
419.2762963209644	0.5036666666666618
418.8526829130364	0.5053333333333285
418.4290500211822	0.5033333333333333
418.00539764406386	0.4596666666666715
417.5817257803349	0.47766666666667634
417.15803442864865	0.42433333333334305
416.7343235876586	0.4310000000000097
416.3105932560246	0.4026666666666764
415.8868434324023	0.5089999999999903
415.4630741154451	0.43
415.03928530380216	0.45066666666665695
414.61547699613976	0.36766666666667636
414.1916491911049	0.4286666666666618
413.767801887351	0.4033333333333333
413.34393508353367	0.4860000000000097
412.9200487783128	0.4633333333333333
412.49614297033526	0.5369999999999951
412.0722176582611	0.43199999999999517
411.64827284073493	0.45699999999999513
411.22430851642116	0.4760000000000097
410.80032468396655	0.39666666666666667
410.376321342029	0.3210000000000097
409.9522984892553	0.4046666666666715
409.5282561243077	0.4060000000000097
409.1041942458351	0.5163333333333382
408.6801128524889	0.4553333333333285
408.2560119429202	0.3976666666666764
407.83189151578915	0.5713333333333381
407.40775156974246	0.43733333333332364
406.9835921034358	0.4666666666666667
406.5594131155161	0.35899999999999027
406.1352146046411	0.44866666666666183
405.7109965694642	0.32466666666667154
405.28675900863453	0.35066666666665697
404.86250192079893	0.3489999999999903
404.43822530461745	0.41766666666667634
404.01392915874123	0.38266666666667637
403.5896134818172	0.43833333333333335
403.1652782724945	0.4223333333333236
402.740923529433	0.5143333333333431
402.31654925127964	0.4663333333333382
401.8921554366857	0.5236666666666618
401.4677420843024	0.4766666666666667
401.0433091927745	0.42133333333333817
400.61885676076406	0.45366666666666183
400.1943847869137	0.4060000000000097
399.7698932698746	0.505
399.345382208296	0.44466666666667154
398.9208516008334	0.4003333333333285
398.4963014461336	0.4223333333333236
398.0717317428458	0.3813333333333382
397.647142489617	0.42766666666667635
397.2225336851048	0.4873333333333236
396.797905327954	0.42633333333333817
396.3732574168138	0.49266666666667636
395.9485899503309	0.4696666666666715
395.52390292716103	0.39800000000000485
395.0991963459511	0.4910000000000097
394.6744702053458	0.4713333333333382
394.2497245039943	0.4203333333333285
393.8249592405521	0.395
393.40017441366183	0.39666666666666667
392.9753700219747	0.39199999999999513
392.5505460641355	0.43333333333333335
392.1257025387955	0.3160000000000097
391.70083944460373	0.33
391.2759567802049	0.3760000000000097
390.8510545442461	0.4
390.42613273537836	0.4076666666666764
390.00119135225094	0.4526666666666764
389.57623039350636	0.39666666666666667
389.1512498577893	0.355
388.72624974375765	0.2939999999999903
388.3012300500495	0.434333333333343
387.8761907753162	0.3636666666666618
387.45113191820036	0.34199999999999514
387.0260534773531	0.3376666666666764
386.60095545141934	0.3989999999999903
386.1758378390437	0.42433333333334305
385.7507006388731	0.4613333333333382
385.3255438495567	0.39666666666666667
384.90036746973703	0.43199999999999517
384.47517149806316	0.3976666666666764
384.0499559331755	0.4716666666666667
383.6247207737275	0.48
383.1994660183596	0.4726666666666764
382.77419166571866	0.4866666666666667
382.3488977144451	0.5230000000000049
381.92358416319234	0.39800000000000485
381.498251010603	0.3623333333333236
381.0728982553196	0.39199999999999513
380.6475258959869	0.3363333333333382
380.2221339312475	0.40699999999999514
379.7967223597549	0.37733333333332364
379.37129118014496	0.3810000000000097
378.94584039106695	0.329333333333343
378.5203699911569	0.41266666666667634
378.09487997907036	0.3889999999999903
377.6693703534434	0.4330000000000048
377.243841112923	0.41933333333334305
376.8182922561495	0.3396666666666715
376.3927237817721	0.35266666666667634
375.96713568843103	0.3660000000000097
375.541527974769	0.4103333333333285
375.11590063942424	0.4360000000000097
374.6902536810523	0.5083333333333333
374.2645870982871	0.565666666666657
373.8389008897734	0.39800000000000485
373.41319505415163	0.4103333333333285
372.9874695900686	0.4753333333333285
372.561724496167	0.47066666666665696
372.1359597710851	0.44800000000000484
371.7101754134632	0.41333333333333333
371.2843714219504	0.3839999999999903
370.8585477951872	0.38566666666665694
370.43270453181174	0.4039999999999903
370.00684163046236	0.39366666666666184
369.5809590897924	0.3860000000000097
369.1550569084336	0.3853333333333285
368.7291350850329	0.425
368.30319361822427	0.44166666666666665
367.87723250665454	0.4739999999999903
367.4512517489663	0.43233333333332363
367.0252513437956	0.45233333333332365
366.5992312897829	0.395
366.17319158557297	0.3839999999999903
365.747132229804	0.43166666666666664
365.32105322111636	0.4526666666666764
364.8949545581462	0.42833333333333334
364.46883623954045	0.43733333333332364
364.0426982639373	0.4036666666666618
363.616540629975	0.47833333333333333
363.19036333628964	0.40300000000000485
362.7641663815303	0.4703333333333285
362.3379497643287	0.4436666666666618
361.9117134833253	0.3913333333333382
361.4854575371626	0.43699999999999517
361.05918192447024	0.43466666666667153
360.6328866439016	0.4339999999999903
360.20657169408406	0.37966666666667154
359.7802370736624	0.4930000000000048
359.3538827812684	0.4389999999999903
358.92750881554895	0.4663333333333382
358.5011151751379	0.5066666666666667
358.07470185867567	0.544333333333343
357.6482688647919	0.5003333333333285
357.22181619213774	0.5160000000000097
356.7953438393429	0.540666666666657
356.3688518050455	0.47933333333334305
355.94234008788163	0.5769999999999952
355.51580868649387	0.529333333333343
355.0892575995162	0.5226666666666764
354.662686825589	0.4313333333333382
354.2360963633396	0.4810000000000097
353.8094862114171	0.41133333333333816
353.3828563684533	0.43699999999999517
352.95620683308425	0.5026666666666764
352.5295376039439	0.5689999999999903
352.1028486796747	0.5230000000000049
351.67614005890846	0.5310000000000097
351.24941174028345	0.5830000000000048
350.8226637224314	0.564333333333343
350.395896003997	0.4469999999999951
349.9691085836077	0.5263333333333382
349.5423014599039	0.6356666666666569
349.11547463151516	0.6080000000000049
348.6886280970863	0.5719999999999952
348.26176185524673	0.6106666666666569
347.8348759046305	0.5783333333333334
347.40797024387143	0.5326666666666764
346.9810448716122	0.42733333333332363
346.55409978648225	0.6293333333333431
346.12713498711554	0.5103333333333285
345.70015047214383	0.5226666666666764
345.2731462402119	0.53
344.8461222899449	0.5460000000000097
344.41907861998106	0.4723333333333236
343.9920152289479	0.4986666666666618
343.56493211548786	0.4189999999999903
343.1378292782306	0.43033333333332846
342.71070671581214	0.46699999999999514
342.2835644268599	0.39066666666665695
341.85640241001437	0.44166666666666665
341.42922066390713	0.41199999999999515
341.0020191871679	0.4360000000000097
340.5747979784326	0.4726666666666764
340.14755703633097	0.40199999999999514
339.7202963595011	0.4703333333333285
339.2930159465705	0.4646666666666715
338.86571579617737	0.45300000000000484
338.4383959069447	0.46933333333334304
338.0110562775131	0.599333333333343
337.5836969065141	0.4646666666666715
337.15631779257734	0.42533333333332846
336.72891893433024	0.5153333333333285
336.30150033041315	0.47
335.8740619794536	0.5219999999999951
335.44660388008316	0.47633333333333816
335.01912603093155	0.570666666666657
334.59162843063257	0.5826666666666763
334.164111077818	0.529333333333343
333.7365739711174	0.5483333333333333
333.3090171091582	0.5483333333333333
332.88144049057644	0.5466666666666666
332.4538441140017	0.5489999999999903
332.02622797806356	0.575
331.59859208138937	0.6460000000000097
331.1709364226152	0.5366666666666666
330.7432610003664	0.54
330.31556581327675	0.5103333333333285
329.8878508599694	0.47
329.46011613908246	0.5360000000000097
329.0323616492413	0.5939999999999903
328.6045873890776	0.5933333333333334
328.1767933572123	0.6069999999999951
327.7489795522879	0.5310000000000097
327.32114597292536	0.5346666666666715
326.89329261775424	0.5773333333333236
326.4654194853997	0.49733333333332364
326.0375265745001	0.4939999999999903
325.60961388367843	0.5006666666666569
325.1816814115642	0.5253333333333284
324.75372915678065	0.4723333333333236
324.3257571179637	0.5426666666666764
323.8977652937386	0.5513333333333382
323.46975368273064	0.590666666666657
323.0417222835672	0.6003333333333285
322.61367109488435	0.6516666666666666
322.18560011530076	0.6246666666666715
321.75750934344825	0.57
321.32939877795206	0.549333333333343
320.9012684174352	0.5833333333333334
320.47311826053584	0.5583333333333333
320.0449483058729	0.5983333333333334
319.6167585520736	0.6119999999999951
319.18854899776323	0.6260000000000097
318.76031964157573	0.570666666666657
318.332070482132	0.5613333333333382
317.9038015180594	0.44300000000000483
317.4755127479788	0.5386666666666619
317.04720417052425	0.5713333333333381
316.6188757843208	0.6530000000000048
316.1905275879894	0.6289999999999903
315.76215958015536	0.645
315.3337717594525	0.7260000000000097
314.9053641244995	0.7019999999999952
314.4769366739217	0.6676666666666764
314.0484894063444	0.7153333333333285
313.6200223203948	0.7680000000000049
313.19153541469825	0.8689999999999903
312.7630286878778	0.7746666666666715
312.3345021385521	0.7796666666666715
311.9059557653574	0.710666666666657
311.4773895669123	0.6736666666666619
311.04880354184195	0.5963333333333382
310.6201976887631	0.695
310.1915720063139	0.7060000000000097
309.76292649310653	0.7836666666666618
309.33426114777274	0.685666666666657
308.90557596892484	0.705
308.4768709551988	0.7560000000000097
308.04814610521345	0.7039999999999903
307.61940141759175	0.7403333333333285
307.1906368909525	0.6723333333333237
306.76185252392514	0.7403333333333285
306.3330483151308	0.69
305.9042242631923	0.674333333333343
305.4753803667263	0.7186666666666618
305.0465166243624	0.6826666666666764
304.61763303472367	0.7910000000000097
304.1887295964288	0.6876666666666764
303.7598063080965	0.810666666666657
303.3308631683563	0.6426666666666764
302.90190017582705	0.7813333333333382
302.4729173291296	0.7746666666666715
302.04391462688477	0.7866666666666666
301.61489206771347	0.6910000000000097
301.18584965024104	0.8703333333333285
300.7567873730861	0.8033333333333333
300.3277052348696	0.8643333333333431
299.89860323421027	0.8610000000000096
299.4694813697333	0.8236666666666618
299.04033964005737	0.8483333333333334
298.6111780438057	0.8430000000000049
298.18199657959036	0.8663333333333382
297.752795246041	0.8686666666666618
297.3235740417741	0.7086666666666618
296.8943329654107	0.8146666666666715
296.46507201556506	0.7966666666666666
296.0357911908646	0.9446666666666715
295.6064904899281	0.9776666666666763
295.17716991137206	0.9756666666666569
294.7478294538131	1.0473333333333237
294.3184691158764	1.075
293.8890888961806	1.0689999999999904
293.4596887933425	0.9716666666666667
293.03026880597844	1.038000000000005
292.6008289327138	0.9423333333333236
292.1713691721628	0.9386666666666618
291.7418895229465	0.9010000000000097
291.312389983677	0.9580000000000048
290.8828705529796	0.910666666666657
290.4533312294709	0.9896666666666715
290.02377201176955	1.0326666666666764
289.59419289848563	0.9589999999999903
289.1645938882465	0.9126666666666764
288.7349749796687	0.9236666666666619
288.3053361713668	0.8853333333333285
287.8756774619528	0.8623333333333236
287.44599885005636	0.9026666666666764
287.0163003342854	0.8319999999999952
286.5865819132608	0.7739999999999903
286.1568435855947	0.8810000000000097
285.7270853499102	0.8060000000000097
285.2973072048218	0.8539999999999903
284.8675091489438	0.804333333333343
284.4376911808905	0.9123333333333237
284.00785329928516	0.8756666666666569
283.577995502742	0.8216666666666667
283.14811778987115	0.8730000000000049
282.7182201592914	0.815666666666657
282.28830260962343	0.7576666666666764
281.85836513947754	0.7360000000000096
281.42840774747015	0.7566666666666667
280.9984304322157	0.7586666666666618
280.5684331923285	0.7689999999999902
280.13841602642736	0.7576666666666764
279.70837893312665	0.6803333333333285
279.2783219110408	0.6676666666666764
278.84824495877757	0.6569999999999951
278.41814807496235	0.675
277.98803125820507	0.595
277.557894507118	0.6443333333333431
277.12773782031337	0.6166666666666667
276.6975611964142	0.5930000000000049
276.26736463402625	0.6523333333333237
275.8371481317683	0.5886666666666618
275.4069116882459	0.6939999999999903
274.97665530208224	0.654333333333343
274.54637897188735	0.6853333333333285
274.11608269627345	0.6546666666666715
273.68576647384845	0.76
273.2554303032375	0.6886666666666618
272.82507418304425	0.6463333333333382
272.39469811188513	0.6663333333333382
271.9643020883682	0.7423333333333236
271.533886111112	0.655666666666657
271.10345017872675	0.6963333333333381
270.67299428982454	0.6510000000000097
270.2425184430133	0.7953333333333285
269.8120226369118	0.7306666666666569
269.38150687013	0.6416666666666667
268.9509711412781	0.675666666666657
268.52041544896383	0.49033333333332846
268.08983979180596	0.49833333333333335
267.65924416841244	0.5669999999999952
267.2286285773954	0.5386666666666619
266.7979930173607	0.6296666666666715
266.36733748692905	0.4089999999999903
265.9366619847041	0.48833333333333334
265.50596650929805	0.38866666666666183
265.07525105931876	0.3560000000000097
264.64451563338287	0.3436666666666618
264.21376023009816	0.30766666666667636
263.78298484807476	0.32666666666666666
263.3521894859162	0.2260000000000097
262.9213741422434	0.2589999999999903
262.4905388156598	0.17166666666666666
262.0596835047756	0.27800000000000485
261.62880820819856	0.07066666666665697
261.1979129245432	0.15566666666665696
260.7669976524172	0.12566666666665696
260.3360623904265	0.16166666666666665
259.90510713718317	0.1313333333333382
259.47413189128866	0.21800000000000486
259.04313665136385	0.13666666666666666
258.6121214160123	0.17666666666666667
258.1810861838397	0.11233333333332363
257.75003095345176	0.1339999999999903
257.31895572346724	0.01699999999999515
256.8878604924875	0.10466666666667152
256.45674525912045	0.012666666666676369
256.0256100219717	0.001333333333338184
255.59445477965582	-0.021333333333338183
255.1632795307762	0.125
254.73208427393865	0.04666666666666667
254.300869007751	0.06733333333332363
253.8696337308255	0.06
253.4383784417657	-0.04066666666665696
253.0071031391773	0.0989999999999903
252.57580782166383	0.012333333333323633
252.1444924878419	0.0539999999999903
251.71315713631068	0.06133333333333819
251.28180176568023	0.026000000000009703
250.85042637454976	0.10133333333333819
250.41903096153368	0.06866666666666181
249.9876155252377	0.09300000000000486
249.55618006426315	0.009666666666671517
249.12472457721364	-0.017333333333323632
248.69324906270137	-0.029666666666671518
248.26175351933205	0.08133333333333818
247.83023794570707	0.06933333333334303
247.3987023404278	0.13
246.96714670210864	0.07566666666665696
246.53557102935096	0.04466666666667152
246.10397532076047	-0.001333333333338184
245.67235957493423	-0.005
245.24072379048877	0.08433333333334303
244.8090679660212	0.03833333333333333
244.37739210013714	0.0410000000000097
243.94569619143803	-0.0310000000000097
243.51398023853605	-0.016666666666666666
243.0822442400283	0.04699999999999515
242.65048819452264	-0.013333333333333334
242.2187121006139	-0.027666666666676366
241.78691595691873	0.001333333333338184
241.35509976203193	0.07166666666666667
240.9232635145614	-0.036333333333338186
240.49140721310636	0.006666666666666667
240.059530856266	-0.043333333333333335
239.62763444265474	-0.009333333333343035
239.1957179708696	-0.058666666666661815
238.76378143951197	-0.03733333333332363
238.33182484718105	0.02266666666667637
237.89984819248693	-0.024333333333343036
237.46785147403094	-0.033666666666661814
237.03583469041013	0.04733333333332363
236.6037978402259	0.07533333333332848
236.1717409220883	0.0016666666666666668
235.7396639345922	0.06266666666667636
235.30756687634332	0.1089999999999903
234.87544974593433	0.04199999999999515
234.44331254197968	-0.0639999999999903
234.01115526307206	0.01199999999999515
233.57897790781496	-0.02300000000000485
233.1467804748055	-0.0060000000000097016
232.7145629626515	0.03266666666667637
232.28232536995006	-0.03866666666666182
231.8500676953025	0.035
231.41778993730375	-0.011333333333338184
230.98549209456385	0.0160000000000097
230.55317416567763	0.013000000000004851
230.12083614924651	0.06833333333333333
229.68847804386536	0.08966666666667152
229.2560998481399	0.021333333333338183
228.82370156066932	0.015666666666656965
228.39128318005285	-0.02699999999999515
227.95884470488318	-0.025333333333328482
227.5263861337704	0.02733333333332363
227.09390746530931	-0.02666666666666667
226.66140869809703	0.010666666666656966
226.22888983073057	0.08066666666665696
225.79635086181347	0.03300000000000485
225.36379178994494	0.06566666666665696
224.93121261371985	0.09300000000000486
224.4986133317331	0.14533333333332848
224.06599394259257	0.1110000000000097
223.63335444489314	0.06333333333333334
223.20069483722963	0.08566666666665697
222.76801511819698	-0.04800000000000485
222.33531528640088	0.003666666666661816
221.9025953404362	0.04533333333332848
221.4698552788978	-0.027666666666676366
221.0370951003849	-0.03333333333333333
220.6043148034924	-0.044333333333343036
220.17151438682168	-0.014333333333343034
219.73869384896756	-0.08833333333333333
219.30585318852715	-0.05733333333332363
218.87299240409308	0.034333333333343034
218.440111494269	0.014333333333343034
218.0072104576475	-0.06733333333332363
217.5742892928257	-0.0360000000000097
217.1413479983941	-0.016666666666666666
216.70838657295846	-0.04199999999999515
216.27540501510927	-0.0539999999999903
215.8424033234436	-0.07300000000000485
215.40938149655196	-0.02
214.97633953303793	-0.02199999999999515
214.5432774314942	-0.07533333333332848
214.11019519051567	-0.065
213.67709280869065	-0.004333333333343035
213.24397028462707	-0.0460000000000097
212.8108276169111	0.0389999999999903
212.37766480413984	0.04833333333333333
211.9444818449016	0.022333333333323633
211.51127873780212	0.04666666666666667
211.0780554814319	0.04733333333332363
210.64481207438155	-0.021000000000009702
210.21154851524156	0.06366666666666182
209.77826480261763	0.020666666666656966
209.34496093509603	0.05466666666667152
208.91163691127156	0.1413333333333382
208.47829272973476	0.13433333333334305
208.0449283890849	0.0639999999999903
207.6115438879125	-0.02199999999999515
207.17813922481238	0.01
206.74471439836861	-0.036333333333338186
206.31126940718693	-0.0016666666666666668
205.87780424985567	-0.02666666666666667
