768.7678709118609	0.08833333333333333
768.3601795435875	-0.085
767.9524697795084	0.12566666666665696
767.5447416183789	0.18199999999999514
767.1369950589522	0.16533333333332847
766.7292300999793	0.15166666666666667
766.321446740222	0.10833333333333334
765.9136449784291	0.1646666666666715
765.5058248133583	0.08866666666666181
765.0979862437583	0.08533333333332849
764.6901292683908	-0.0239999999999903
764.2822538860049	0.016666666666666666
763.8743600953579	0.028666666666661816
763.4664478951966	0.1253333333333285
763.0585172842827	0.08733333333332363
762.6505682613673	0.14766666666667635
762.2426008252036	0.22866666666666183
761.8346149745404	0.11833333333333333
761.4266107081372	0.06666666666666667
761.0185880247452	0.23300000000000484
760.6105469231176	0.19966666666667152
760.202487402003	0.10266666666667637
759.7944094601592	0.07566666666665696
759.3863130963391	0.07266666666667637
758.9781983092939	0.04833333333333333
758.5700650977723	0.13666666666666666
758.1619134605319	0.17633333333333817
757.7537433963257	0.13800000000000484
757.3455549039006	0.14199999999999516
756.9373479820074	0.1486666666666618
756.529122629406	0.18466666666667153
756.1208788448427	0.19133333333333818
755.7126166270709	0.11733333333332363
755.3043359748374	0.1596666666666715
754.8960368869017	0.1210000000000097
754.4877193620104	0.12833333333333333
754.0793833989146	0.08066666666665696
753.671028996363	0.05633333333333818
753.2626561531134	0.10666666666666667
752.8542648679122	0.07699999999999516
752.4458551395104	0.11699999999999515
752.0374269666613	0.12033333333332848
751.6289803481072	0.18566666666665696
751.2205152826077	0.12266666666667637
750.8120317689096	0.22766666666667637
750.4035298057637	0.12333333333333334
749.9950093919146	0.20833333333333334
749.586470526122	0.15933333333334304
749.1779132071304	0.12633333333333818
748.7693374336906	-0.012666666666676369
748.3607432045474	0.14166666666666666
747.9521305184559	0.07833333333333334
747.5434993741673	0.05266666666667637
747.134849770426	0.041666666666666664
746.7261817059784	0.042666666666676366
746.3174951795825	0.12
745.9087901899825	0.07033333333332849
745.500066735925	0.105
745.091324816159	0.09833333333333333
744.6825644294398	0.12800000000000486
744.2737855745097	0.030333333333328483
743.8649882501174	0.06533333333332848
743.4561724550099	0.12300000000000486
743.0473381879422	0.11233333333332363
742.6384854476568	0.14333333333333334
742.2296142329003	0.14566666666665695
741.8207245424215	0.12166666666666667
741.4118163749715	0.12333333333333334
741.002889729297	0.09699999999999515
740.5939446041443	0.12266666666667637
740.1849809982541	0.007333333333323632
739.7759989103856	0.10633333333333818
739.3669983392814	0.14633333333333817
738.957979283686	0.15233333333332363
738.5489417423437	0.16800000000000484
738.13988571401	0.19199999999999515
737.730811197425	0.1060000000000097
737.3217181913398	0.1486666666666618
736.9126066944921	0.07366666666666181
736.5034767056397	0.08633333333333819
736.0943282235205	0.17266666666667638
735.6851612468854	0.03666666666666667
735.2759757744748	0.013000000000004851
734.8667718050416	0.13466666666667151
734.4575493373283	0.019666666666671516
734.0483083700792	0.03266666666667637
733.6390489020412	0.004666666666671517
733.2297709319565	0.09033333333332848
732.8204744585761	0.044333333333343036
732.4111594806445	0.07733333333332364
732.0018259969019	0.06
731.5924740060949	0.09433333333334304
731.1831035069702	0.02199999999999515
730.7737144982744	0.02033333333332848
730.3643069787478	0.02800000000000485
729.9548809471348	0.08766666666667637
729.5454364021842	-0.002333333333323632
729.1359733426384	0.07733333333332364
728.7264917672396	0.06133333333333819
728.3169916747303	-0.019333333333343035
727.9074730638592	0.0560000000000097
727.4979359333709	-0.02199999999999515
727.0883802820032	0.08633333333333819
726.6788061085008	0.07300000000000485
726.2692134116146	0.12033333333332848
725.8596021900805	0.042666666666676366
725.449972442645	-0.0339999999999903
725.0403241680441	0.026000000000009703
724.630657365033	-0.013999999999990298
724.2209720323476	0.008666666666661816
723.8112681687303	0.030666666666656964
723.4015457729232	0.055
722.9918048436731	0.028999999999990297
722.5820453797202	0.08233333333332363
722.1722673798067	0.08833333333333333
721.7624708426707	0.18199999999999514
721.3526557670632	0.13233333333332364
720.94282215172	0.10800000000000486
720.5329699953855	0.0810000000000097
720.1230992967957	0.12166666666666667
719.7132100547013	0.08633333333333819
719.3033022678385	0.08866666666666181
718.8933759349494	0.07466666666667152
718.4834310547741	-0.025
718.0734676260573	0.03133333333333818
717.6634856475368	-0.09300000000000486
717.2534851179572	0.04766666666667637
716.8434660360522	0.15833333333333333
716.4334284005727	0.09433333333334304
716.0233722102523	0.09533333333332848
715.6132974638334	0.04633333333333818
715.2032041600562	0.05800000000000485
714.7930922976565	0.04066666666665696
714.3829618753853	0.025666666666656967
713.9728128919741	0.0760000000000097
713.562645346165	0.06866666666666181
713.1524592366941	0.1139999999999903
712.7422545623102	0.08433333333334303
712.3320313217469	0.08800000000000485
711.9217895137442	0.04866666666666181
711.5115291370382	0.07833333333333334
711.1012501903754	0.04466666666667152
710.6909526724916	0.13300000000000486
710.2806365821249	0.12266666666667637
709.870301918011	0.033666666666661814
709.4599486788967	0.13199999999999515
709.0495768635155	0.09633333333333818
708.6391864706077	0.07366666666666181
708.228777498909	0.023666666666661815
707.8183499471618	0.04133333333333818
707.4079038141018	0.05966666666667152
706.9974390984672	0.12699999999999514
706.5869557989937	0.16
706.1764539144258	0.09933333333334303
705.7659334434971	0.09699999999999515
705.3553943849456	0.1060000000000097
704.9448367375052	0.03133333333333818
704.5342604999221	0.08233333333332363
704.123665670926	0.07633333333333818
703.7130522492591	0.018666666666661814
703.3024202336507	0.05566666666665696
702.8917696228474	0.0939999999999903
702.4811004155808	0.09266666666667636
702.0704126105888	0.13966666666667152
701.6597062066053	0.11033333333332848
701.2489812023722	0.14733333333332363
700.8382375966235	0.1360000000000097
700.4274753880926	0.11933333333334303
700.0166945755177	0.10933333333334304
699.6058951576366	0.1546666666666715
699.1950771331854	0.06699999999999515
698.7842405008996	0.04
698.3733852595066	0.13199999999999515
697.962511407755	0.045
697.5516189443744	0.06366666666666182
697.1407078681002	0.13699999999999515
696.7297781776643	0.16699999999999515
696.3188298718089	0.07166666666666667
695.9078629492653	0.10833333333333334
695.4968774087696	0.16066666666665697
695.0858732490532	0.10233333333332363
694.6748504688518	0.18800000000000486
694.2638090669034	0.07766666666667636
693.8527490419395	0.11066666666665696
693.4416703926984	0.051333333333338185
693.0305731179045	0.06533333333332848
692.6194572163027	0.10233333333332363
692.2083226866246	0.14300000000000485
691.7971695276012	0.19699999999999515
691.3859977379644	0.08466666666667151
690.9748073164542	0.13199999999999515
690.563598261802	0.1839999999999903
690.1523705727373	0.1946666666666715
689.7411242479958	0.09633333333333818
689.3298592863133	0.056666666666666664
688.9185756864193	0.051000000000009704
688.5072734470516	0.20233333333332362
688.095952566933	0.22433333333334304
687.6846130448081	0.19533333333332847
687.273254879404	0.20766666666667638
686.8618780694522	0.15733333333332364
686.4504826136841	0.09133333333333818
686.0390685108379	0.13233333333332364
685.6276357596405	0.21866666666666182
685.216184358828	0.23800000000000485
684.804714307125	0.16166666666666665
684.3932256032718	0.1596666666666715
683.981718245998	0.13666666666666666
683.5701922340304	0.0760000000000097
683.1586475661029	0.1289999999999903
682.747084240951	0.16833333333333333
682.3355022573022	0.1060000000000097
681.9239016138878	0.155
681.5122823094371	0.10800000000000486
681.100644342686	0.15066666666665696
680.6889877123616	0.16533333333332847
680.2773124171954	0.17800000000000485
679.8656184559145	0.14199999999999516
679.4539058272569	0.18333333333333332
679.0421745299477	0.13733333333332362
678.6304245627183	0.06833333333333333
678.2186559242936	0.03866666666666182
677.8068686134138	0.1060000000000097
677.395062628804	0.17666666666666667
676.9832379691933	0.16166666666666665
676.5713946333069	0.1896666666666715
676.1595326198826	0.16933333333334302
675.7476519276477	0.2089999999999903
675.3357525553292	0.15
674.9238345016566	0.2013333333333382
674.5118977653547	0.14666666666666667
674.0999423451638	0.1510000000000097
673.6879682398022	0.24566666666665696
673.2759754480059	0.11166666666666666
672.8639639684933	0.1989999999999903
672.4519338000044	0.15199999999999514
672.0398849412645	0.15933333333334304
671.6278173909984	0.19866666666666183
671.2157311479332	0.10866666666666182
670.8036262108026	0.2453333333333285
670.3915025783316	0.21833333333333332
669.9793602492473	0.1853333333333285
669.5671992222748	0.18166666666666667
669.1550194961476	0.21333333333333335
668.7428210695929	0.10966666666667152
668.3306039413335	0.056666666666666664
667.9183681100944	0.14699999999999516
667.5061135746137	0.2103333333333285
667.0938403336097	0.13
666.6815483858096	0.1896666666666715
666.2692377299405	0.11166666666666666
665.856908364734	0.055
665.4445602889106	0.026000000000009703
665.0321935011997	0.12866666666666182
664.6198080003242	0.16300000000000486
664.2074037850176	0.1596666666666715
663.7949808539984	0.09566666666665696
663.3825392059981	0.18566666666665696
662.9700788397353	0.19733333333332362
662.5575997539434	0.26666666666666666
662.1451019473432	0.16433333333334305
661.732585418664	0.2036666666666618
661.3200501666242	0.16199999999999515
660.9074961899598	0.17733333333332363
660.494923487387	0.14933333333334303
660.0823320576351	0.09366666666666182
659.6697218994246	0.17333333333333334
659.2570930114873	0.1689999999999903
658.8444453925414	0.10466666666667152
658.4317790413164	0.17233333333332362
658.0190939565284	0.1410000000000097
657.6063901369134	0.0810000000000097
657.1936675811899	0.0760000000000097
656.7809262880805	0.14633333333333817
656.3681662563105	0.15266666666667636
655.9553874846001	0.11300000000000485
655.5425899716812	0.055
655.1297737162741	0.19300000000000486
654.7169387170998	0.16800000000000484
654.3040849728786	0.20300000000000484
653.8912124823422	0.11966666666667151
653.4783212442112	0.0639999999999903
653.0654112572063	0.07633333333333818
652.6524825200479	0.15933333333334304
652.2395350314655	0.23233333333332362
651.8265687901776	0.17933333333334303
651.4135837949091	0.20300000000000484
651.0005800443785	0.23300000000000484
650.5875575373129	0.2519999999999952
650.1745162724332	0.16066666666665697
649.7614562484596	0.20066666666665697
649.348377464113	0.1789999999999903
648.9352799181206	0.06800000000000485
648.5221636092008	0.1589999999999903
648.1090285360741	0.21766666666667636
647.6958746974614	0.09833333333333333
647.2827020920896	0.2836666666666618
646.8695107186775	0.21666666666666667
646.4563005759431	0.12166666666666667
646.0430716626075	0.18366666666666182
645.6298239773976	0.01199999999999515
645.2165575190319	0.165
644.8032722862267	0.04066666666665696
644.3899682777028	0.0760000000000097
643.9766454921893	0.12566666666665696
643.5633039283982	0.19133333333333818
643.1499435850546	0.13199999999999515
642.7365644608705	0.19933333333334302
642.3231665545771	0.20666666666666667
641.9097498648889	0.1989999999999903
641.4963143905242	0.1460000000000097
641.0828601302013	0.2260000000000097
640.6693870826476	0.11133333333333818
640.2558952465771	0.14333333333333334
639.8423846207105	0.14933333333334303
639.4288552037599	0.08433333333334303
639.0153069944565	0.09533333333332848
638.6017399915146	0.10300000000000485
638.1881541936483	0.08866666666666181
637.7745495995827	0.10633333333333818
637.3609262080296	0.20266666666667638
636.9472840177161	0.18866666666666182
636.5336230273545	0.19833333333333333
636.119943235665	0.13166666666666665
635.7062446413621	0.21
635.2925272431705	0.09766666666667637
634.8787910398067	0.22066666666665696
634.4650360299848	0.20033333333332848
634.0512622124211	0.16566666666665697
633.6374695858384	0.14233333333332363
633.2236581489551	0.13066666666665697
632.8098279004832	0.16066666666665697
632.3959788391412	0.1639999999999903
631.9821109636476	0.14233333333332363
631.5682242727231	0.21466666666667153
631.1543187650774	0.24133333333333817
630.7403944394289	0.19866666666666183
630.3264512944984	0.1253333333333285
629.9124893289999	0.14766666666667635
629.4985085416498	0.17533333333332848
629.08450893116	0.19433333333334304
628.6704904962556	0.2160000000000097
628.2564532356485	0.11933333333334303
627.8423971480548	0.2289999999999903
627.4283222321847	0.21766666666667636
627.0142284867629	0.29766666666667635
626.6001159105014	0.22800000000000484
626.1859845021144	0.10266666666667637
625.771834260316	0.22433333333334304
625.3576651838268	0.21466666666667153
624.9434772713589	0.21666666666666667
624.5292705216264	0.22533333333332847
624.1150449333433	0.22566666666665697
623.7008005052281	0.14766666666667635
623.2865372359929	0.16366666666666183
622.872255124354	0.20533333333332848
622.457954169021	0.18866666666666182
622.0436343687147	0.20533333333332848
621.629295722145	0.20666666666666667
621.2149382280302	0.14433333333334303
620.8005618850757	0.18633333333333818
620.3861666920067	0.14
619.9717526475306	0.23199999999999515
619.5573197503596	0.11533333333332849
619.1428679992077	0.195
618.7283973927935	0.1363333333333382
618.3139079298264	0.07666666666666666
617.8993996090189	0.19133333333333818
617.4848724290849	0.1689999999999903
617.0703263887341	0.22733333333332365
616.6557614866873	0.28
616.2411777216521	0.22800000000000484
615.8265750923404	0.21733333333332364
615.411953597462	0.165
614.9973132357354	0.10266666666667637
614.5826540058705	0.18666666666666668
614.1679759065792	0.15366666666666182
613.7532789365712	0.011666666666666667
613.3385630945629	0.0389999999999903
612.9238283792641	0.11933333333334303
612.5090747893845	0.17966666666667153
612.0943023236341	0.20933333333334303
611.6795109807312	0.19300000000000486
611.2647007593813	0.22733333333332365
610.8498716582986	0.26366666666666183
610.4350236761907	0.11766666666667637
610.0201568117717	0.16733333333332362
609.6052710637535	0.15
609.1903664308418	0.23300000000000484
608.7754429117483	0.18
608.3605005051894	0.16533333333332847
607.9455392098686	0.18933333333334304
607.5305590245018	0.14966666666667153
607.1155599477905	0.17466666666667152
606.700541978453	0.18666666666666668
606.2855051151969	0.195
605.8704493567299	0.16800000000000484
605.4553747017618	0.225
605.0402811490067	0.20766666666667638
604.6251686971679	0.1689999999999903
604.2100373449596	0.1489999999999903
603.794887091085	0.05466666666667152
603.3797179342605	0.14433333333334303
602.9645298731892	0.1713333333333382
602.5493229065834	0.2139999999999903
602.1340970331482	0.21833333333333332
601.7188522515959	0.31766666666667637
601.3035885606339	0.18266666666667636
600.8883059589721	0.095
600.4730044453094	0.2760000000000097
600.0576840183686	0.1739999999999903
599.6423446768466	0.16266666666667637
599.2269864194574	0.1786666666666618
598.8116092449044	0.2313333333333382
598.3962131518952	0.18266666666667636
597.9807981391417	0.1546666666666715
597.5653642053495	0.10100000000000971
597.1499113492239	0.12866666666666182
596.7344395694705	0.1439999999999903
596.3189488648012	0.17333333333333334
595.9034392339214	0.13733333333332362
595.4879106755388	0.16533333333332847
595.0723631883525	0.15
594.6567967710808	0.22266666666667637
594.2412114224227	0.21133333333333817
593.825607141088	0.15699999999999514
593.4099839257777	0.21800000000000486
592.9943417752039	0.1596666666666715
592.57868068807	0.15800000000000486
592.1630006630813	0.1189999999999903
591.7473016989411	0.15199999999999514
591.3315837943614	0.1386666666666618
590.9158469480456	0.11666666666666667
590.5000911586968	0.19566666666665697
590.0843164250163	0.10366666666666181
589.6685227457202	0.07100000000000971
589.2527101195077	0.09766666666667637
588.8368785450818	0.10533333333332848
588.4210280211462	0.06933333333334303
588.0051585464104	0.07699999999999516
587.5892701195799	0.23800000000000485
587.1733627393536	0.11033333333332848
586.7574364044372	0.13199999999999515
586.341491113538	0.16
585.9255268653596	0.16933333333334302
585.5095436586031	0.08233333333332363
585.0935414919694	0.21899999999999029
584.6775203641728	0.22166666666666668
584.26148027391	0.17266666666667638
583.8454212198844	0.18933333333334304
583.4293432007971	0.25166666666666665
583.0132462153579	0.23333333333333334
582.5971302622678	0.10033333333332849
582.1809953402259	0.00800000000000485
581.7648414479354	0.10800000000000486
581.3486685841062	0.14966666666667153
580.9324767474351	0.11766666666667637
580.5162659366252	0.15866666666666182
580.1000361503757	0.1260000000000097
579.6837873873984	0.06333333333333334
579.267519646388	0.1546666666666715
578.8512329260478	0.13800000000000484
578.4349272250832	0.10866666666666182
578.0186025421867	0.16366666666666183
577.6022588760703	0.09733333333332363
577.1858962254329	0.11633333333333819
576.7695145889734	0.06199999999999515
576.3531139653909	0.23166666666666666
575.9366943533951	0.10766666666667636
575.5202557516828	0.12633333333333818
575.1037981589529	0.19933333333334302
574.6873215739046	0.0960000000000097
574.2708259952475	0.2436666666666618
573.854311421674	0.19333333333333333
573.4377778518897	0.17800000000000485
573.0212252845891	0.1710000000000097
572.6046537184778	0.11433333333334303
572.1880631522547	0.15433333333334304
571.7714535846209	0.21133333333333817
571.3548250142687	0.12133333333333818
570.9381774399104	0.21199999999999514
570.5215108602383	0.2153333333333285
570.1048252739535	0.19366666666666182
569.6881206797506	0.16533333333332847
569.2713970763372	0.1360000000000097
568.854654462408	0.06633333333333818
568.4378928366642	0.11533333333332849
568.0211121978002	0.1160000000000097
567.6043125445195	0.1910000000000097
567.187493875521	0.13166666666666665
566.7706561895014	0.19199999999999515
566.3537994851577	0.1553333333333285
565.9369237611908	0.11233333333332363
565.5200290162996	0.11066666666665696
565.1031152491812	0.18633333333333818
564.6861824585301	0.08333333333333333
564.2692306430516	0.20266666666667638
563.8522598014383	0.19366666666666182
563.4352699323913	0.1963333333333382
563.0182610345986	0.14766666666667635
562.6012331067724	0.15733333333332364
562.1841861476007	0.14699999999999516
561.7671201557823	0.2260000000000097
561.3500351300121	0.15266666666667636
560.9329310689911	0.13166666666666665
560.515807971416	0.18233333333332363
560.0986658359838	0.15833333333333333
559.6815046613867	0.1963333333333382
559.2643244463217	0.205
558.847125189492	0.23833333333333334
558.4299068895878	0.2586666666666618
558.012669545306	0.23533333333332848
557.5954131553412	0.21199999999999514
557.1781377183946	0.26800000000000485
556.7608432331607	0.16933333333334302
556.343529698332	0.23666666666666666
555.926197112601	0.2086666666666618
555.5088454746709	0.25233333333332364
555.0914747832342	0.2619999999999951
554.6740850369855	0.20233333333332362
554.2566762346152	0.175
553.8392483748285	0.21199999999999514
553.4218014563138	0.1489999999999903
553.0043354777655	0.12166666666666667
552.5868504378763	0.19066666666665696
552.1693463353471	0.2089999999999903
551.7518231688704	0.27
551.3342809371366	0.23533333333332848
550.91671963884	0.2260000000000097
550.49913927268	0.3313333333333382
550.0815398373467	0.18333333333333332
549.6639213315347	0.3010000000000097
549.2462837539342	0.23533333333332848
548.8286271032442	0.25233333333332364
548.4109513781551	0.22199999999999515
547.9932565773614	0.2496666666666715
547.5755426995535	0.2139999999999903
547.1578097434281	0.23233333333332362
546.7400577076776	0.24733333333332364
546.3222865909923	0.11266666666667637
545.9044963920649	0.22199999999999515
545.4866871095918	0.26600000000000973
545.0688587422615	0.1939999999999903
544.6510112887704	0.24166666666666667
544.2331447478026	0.2039999999999903
543.8152591180612	0.265
543.39735439823	0.34433333333334304
542.979430587006	0.314333333333343
542.5614876830728	0.2386666666666618
542.1435256851336	0.2710000000000097
541.7255445918723	0.28566666666665697
541.3075444019836	0.2763333333333382
540.8895251141511	0.2139999999999903
540.471486727076	0.3360000000000097
540.0534292394465	0.3763333333333382
539.6353526499506	0.374333333333343
539.217256957283	0.39366666666666184
538.7991421601253	0.40566666666665696
538.3810082571806	0.41633333333333816
537.962855247133	0.39366666666666184
537.5446831286725	0.5030000000000049
537.1264919004875	0.43333333333333335
536.7082815612724	0.34433333333334304
536.2900521097155	0.5030000000000049
535.871803544509	0.4880000000000049
535.4535358643325	0.47566666666665697
535.0352490678893	0.47566666666665697
534.6169431538631	0.49033333333332846
534.19861812094	0.43533333333332846
533.78027396781	0.5226666666666764
533.361910693168	0.5253333333333284
532.9435282956977	0.5810000000000097
532.5251267740915	0.565666666666657
532.1067061270311	0.5760000000000097
531.6882663532132	0.5169999999999951
531.2698074513237	0.6546666666666715
530.8513294200487	0.73
530.4328322580762	0.609333333333343
530.0143159641009	0.7386666666666618
529.5957805368043	0.7073333333333236
529.1772259748768	0.7580000000000049
528.7586522770022	0.7183333333333334
528.3400594418729	0.6960000000000097
527.9214474681769	0.7519999999999951
527.5028163546002	0.7533333333333333
527.0841660998245	0.7716666666666666
526.6654967025466	0.8073333333333236
526.2468081614481	0.8780000000000049
525.8281004752192	0.8686666666666618
525.4093736425393	0.9396666666666715
524.9906276621032	0.8383333333333334
524.5718625325945	0.8960000000000097
524.1530782526993	0.9930000000000049
523.7342748211013	0.9736666666666618
523.3154522364929	1.1189999999999902
522.896610497558	1.1926666666666763
522.4777496029803	1.2539999999999902
522.0588695514436	1.2413333333333383
521.6399703416404	1.2536666666666618
521.2210519722521	1.3123333333333236
520.8021144419671	1.3710000000000098
520.3831577494668	1.4223333333333237
519.9641818934351	1.5803333333333285
519.5451868725623	1.659333333333343
519.1261726855342	1.7839999999999903
518.7071393310304	1.9426666666666763
518.2880868077347	1.9903333333333284
517.8690151143393	2.176999999999995
517.449924249526	2.2483333333333335
517.0308142119765	2.33899999999999
516.6116850003721	2.61600000000001
516.1925366134055	2.824333333333343
515.7733690497562	3.0610000000000097
515.3541823081079	3.2689999999999904
514.934976387142	3.493666666666662
514.5157512855491	3.81899999999999
514.0965070020062	4.055333333333328
513.6772435352017	4.552333333333324
513.2579608838126	5.0463333333333384
512.8386590465294	5.408333333333333
512.4193380220314	5.96600000000001
511.99999780900464	6.508999999999991
511.580638406122	7.13100000000001
511.1612598120781	7.82399999999999
510.7418620255524	8.809333333333344
510.3224450452243	9.335666666666658
509.9030088697755	10.309666666666672
509.48355349789404	11.084333333333342
509.06407892825723	11.743999999999991
508.6445851595488	12.496666666666666
508.22507219044604	12.912666666666677
507.8055400196393	13.355333333333329
507.3859886458058	13.522333333333323
506.96641806762716	13.661999999999995
506.5468282837806	13.499333333333343
506.12721929295435	13.221999999999996
505.7075910938277	12.725666666666656
505.2879436850803	12.102333333333323
504.8682770653892	11.45899999999999
504.4485912334448	10.651666666666667
504.02888618792	9.819333333333343
503.6091619274987	9.054666666666671
503.1894184508558	8.467666666666677
502.76965575668174	7.783333333333333
502.3498738436494	7.228666666666662
501.93007271044036	6.64100000000001
501.51025235573195	6.092666666666676
501.09041277821007	5.654666666666672
500.67055397655207	5.109666666666672
500.25067594943516	4.8
499.8307786955409	4.456999999999995
499.41086221354453	4.0786666666666616
498.9909265021319	3.799333333333343
498.5709715599803	3.6633333333333336
498.15099738576487	3.4860000000000095
497.73100397816495	3.1883333333333335
497.31099133586446	2.7703333333333284
496.89095945753843	2.7546666666666715
496.4709083418663	2.7023333333333235
496.050837987521	2.511999999999995
495.6307483931907	2.345666666666657
495.21063955754823	2.254333333333343
494.790511479271	2.1260000000000097
494.37036415703403	1.9880000000000049
493.95019758952327	1.9760000000000097
493.53001177541165	1.880666666666657
493.1098067133765	1.8516666666666666
492.68958240209287	1.7439999999999902
492.26933884024237	1.5919999999999952
491.8490760265023	1.519333333333343
491.42879395954776	1.5486666666666618
491.0084926380517	1.4946666666666715
490.5881720607	1.3003333333333285
490.1678322261635	1.309333333333343
489.7474731331217	1.2460000000000098
489.32709478024304	1.2266666666666666
488.9066971662135	1.1756666666666569
488.48628028970614	1.1010000000000097
488.0658441493982	1.113666666666662
487.6453887439581	1.0596666666666714
487.224914072072	1.0389999999999904
486.8044201324106	1.0060000000000098
486.38390692364896	0.8033333333333333
485.96337444446226	0.9113333333333382
485.5428226935299	0.905666666666657
485.1222516695248	0.790666666666657
484.7016613711199	0.8606666666666569
484.28105179699037	0.9033333333333333
483.86042294581335	0.7816666666666666
483.43977481626627	0.88
483.01910740701766	0.8880000000000049
482.59842071674257	0.8689999999999903
482.1777147441205	0.7673333333333237
481.75698948782224	0.8239999999999903
481.33624494652287	0.7726666666666764
480.91548111889534	0.7323333333333236
480.4946980036104	0.7826666666666764
480.0738955993496	0.7480000000000049
479.65307390478165	0.6953333333333285
479.2322329185816	0.7180000000000049
478.81137263941804	0.659333333333343
478.3904930659726	0.6836666666666619
477.9695941969139	0.650666666666657
477.5486760309148	0.6423333333333237
477.127738566644	0.6783333333333333
476.70678180278304	0.7413333333333382
476.28580573800053	0.6369999999999951
475.86481037096945	0.6203333333333285
475.44379570035835	0.6286666666666618
475.0227617248467	0.549333333333343
474.6017084431009	0.5976666666666763
474.1806358537961	0.5110000000000097
473.75954395560086	0.5533333333333333
473.3384327471903	0.5630000000000048
472.91730222723737	0.6216666666666667
472.4961523944085	0.5469999999999952
472.07498324737657	0.5176666666666764
471.6537947848168	0.6003333333333285
471.2325870053998	0.5836666666666618
470.81135990779217	0.6116666666666667
470.3901134906646	0.5823333333333236
469.9688477526965	0.5410000000000097
469.54756269254995	0.5233333333333333
469.12625830890016	0.47699999999999515
468.7049346004113	0.5019999999999951
468.28359156576283	0.435666666666657
467.86222920361905	0.535666666666657
467.4408475126529	0.5053333333333285
467.0194464915286	0.5560000000000097
466.5980261389256	0.5126666666666764
466.176586453506	0.5996666666666716
465.75512743394273	0.4460000000000097
465.3336490789022	0.3883333333333333
464.91215138705746	0.44300000000000483
464.490634357077	0.3439999999999903
464.0690979876294	0.35266666666667634
463.647542277379	0.47199999999999515
463.22596722500305	0.41833333333333333
462.80437282916796	0.3219999999999951
462.3827590885402	0.4223333333333236
461.96112600178395	0.34833333333333333
461.5394735675766	0.31800000000000483
461.1178017845845	0.2996666666666715
460.69611065147194	0.31966666666667154
460.2744001669097	0.3539999999999903
459.8526703295598	0.29266666666667634
459.4309211380996	0.3086666666666618
459.00915259119125	0.37266666666667636
458.58736468750317	0.3503333333333285
458.1655574256997	0.3836666666666618
457.74373080445605	0.41933333333334305
457.321884822432	0.35300000000000487
456.9000194782984	0.22733333333332365
456.47813477071736	0.319333333333343
456.0562306983639	0.35699999999999515
455.634307259898	0.315666666666657
455.2123644539904	0.30699999999999517
454.7904022793011	0.3139999999999903
454.36842073450293	0.315
453.9464198182602	0.2539999999999903
453.5243995292416	0.37033333333332846
453.1023598661026	0.3263333333333382
452.6803008275226	0.30833333333333335
452.2582224121617	0.33066666666665695
451.83612461868404	0.3169999999999952
451.41400744575174	0.20733333333332363
450.9918708920399	0.23333333333333334
450.56971495620627	0.26866666666666184
450.1475396369195	0.27066666666665695
449.72534493283945	0.2986666666666618
449.3031308426391	0.30233333333332363
448.88089736497835	0.3030000000000049
448.4586444985215	0.23733333333332363
448.03637224192846	0.2813333333333382
447.6140805938743	0.3463333333333382
447.19176955301896	0.17333333333333334
446.7694391180224	0.2639999999999903
446.347089287551	0.3476666666666764
445.9247200602713	0.319333333333343
445.50233143484525	0.22966666666667152
445.079923409935	0.17033333333332848
444.6574959842027	0.2563333333333382
444.2350491563169	0.20699999999999516
443.8125829249397	0.19
443.390097288731	0.24166666666666667
442.9675922463529	0.2036666666666618
442.54506779647625	0.20766666666667638
442.12252393775657	0.35199999999999515
441.69996066885807	0.2773333333333236
441.277377988443	0.345
440.85477589517325	0.25466666666667154
440.43215438771324	0.3610000000000097
440.00951346472505	0.37833333333333335
439.58685312487074	0.25766666666667637
439.16417336680587	0.22300000000000486
438.7414741892034	0.21333333333333335
438.31875559071676	0.27366666666666184
437.8960175700124	0.2360000000000097
437.4732601257437	0.3
437.05048325658146	0.265
436.62768696118343	0.2810000000000097
436.2048712382074	0.2239999999999903
435.7820360863154	0.2689999999999903
435.3591815041739	0.24133333333333817
434.9363074904384	0.26
434.51341404377115	0.17699999999999516
434.09050116282765	0.3010000000000097
433.6675688462765	0.2953333333333285
433.24461709277546	0.31466666666667154
432.8216459009802	0.3836666666666618
432.3986552695505	0.28800000000000486
431.9756451971529	0.3630000000000049
431.55261568244293	0.35899999999999027
431.12956672408274	0.3660000000000097
430.70649832072354	0.3496666666666715
430.28341047103396	0.4419999999999952
429.8603031736717	0.42266666666667635
429.43717642729246	0.38
429.0140302305539	0.4736666666666618
428.5908645821203	0.3476666666666764
428.1676794806494	0.4189999999999903
427.74447492479686	0.29433333333334305
427.3212509132182	0.375
426.89800744458205	0.310666666666657
426.4747445175375	0.41066666666665697
426.05146213074664	0.42633333333333817
425.6281602828629	0.4710000000000097
425.20483897255264	0.37733333333332364
424.7814981984672	0.4596666666666715
424.3581379592665	0.43833333333333335
423.9347582536018	0.3926666666666764
423.5113590801394	0.4010000000000097
423.0879404375329	0.32666666666666666
422.66450232444	0.4436666666666618
422.24104473951405	0.37233333333332364
421.8175676814172	0.4986666666666618
421.39407114880504	0.4339999999999903
420.97055514033093	0.44466666666667154
420.54701965465495	0.39800000000000485
420.1234646904282	0.3946666666666715
419.6998902463128	0.34066666666665696
419.2762963209644	0.29633333333333817
418.8526829130364	0.34800000000000486
418.4290500211822	0.28633333333333816
418.00539764406386	0.3423333333333236
417.5817257803349	0.37266666666667636
417.15803442864865	0.36666666666666664
416.7343235876586	0.3080000000000048
416.3105932560246	0.3760000000000097
415.8868434324023	0.4089999999999903
415.4630741154451	0.35433333333334305
415.03928530380216	0.35899999999999027
414.61547699613976	0.38566666666665694
414.1916491911049	0.374333333333343
413.767801887351	0.41
413.34393508353367	0.305666666666657
412.9200487783128	0.40066666666665696
412.49614297033526	0.37233333333332364
412.0722176582611	0.35333333333333333
411.64827284073493	0.36699999999999516
411.22430851642116	0.3303333333333285
410.80032468396655	0.31733333333332364
410.376321342029	0.35133333333333816
409.9522984892553	0.3546666666666715
409.5282561243077	0.4110000000000097
409.1041942458351	0.35833333333333334
408.6801128524889	0.48433333333334305
408.2560119429202	0.4123333333333236
407.83189151578915	0.36966666666667153
407.40775156974246	0.3566666666666667
406.9835921034358	0.28800000000000486
406.5594131155161	0.25166666666666665
406.1352146046411	0.2613333333333382
405.7109965694642	0.32733333333332365
405.28675900863453	0.36533333333332846
404.86250192079893	0.2836666666666618
404.43822530461745	0.3646666666666715
404.01392915874123	0.3016666666666667
403.5896134818172	0.3446666666666715
403.1652782724945	0.2839999999999903
402.740923529433	0.245
402.31654925127964	0.23233333333332362
401.8921554366857	0.28300000000000486
401.4677420843024	0.30233333333332363
401.0433091927745	0.36966666666667153
400.61885676076406	0.3333333333333333
400.1943847869137	0.29133333333333816
399.7698932698746	0.36266666666667635
399.345382208296	0.30733333333332363
398.9208516008334	0.310666666666657
398.4963014461336	0.3333333333333333
398.0717317428458	0.2153333333333285
397.647142489617	0.28566666666665697
397.2225336851048	0.2753333333333285
396.797905327954	0.2910000000000097
396.3732574168138	0.2753333333333285
395.9485899503309	0.27233333333332366
395.52390292716103	0.3396666666666715
395.0991963459511	0.24
394.6744702053458	0.29133333333333816
394.2497245039943	0.2836666666666618
393.8249592405521	0.26866666666666184
393.40017441366183	0.2966666666666667
392.9753700219747	0.4280000000000049
392.5505460641355	0.40933333333334304
392.1257025387955	0.3276666666666764
391.70083944460373	0.25666666666666665
391.2759567802049	0.26233333333332365
390.8510545442461	0.3389999999999903
390.42613273537836	0.2846666666666715
390.00119135225094	0.3136666666666618
389.57623039350636	0.2966666666666667
389.1512498577893	0.31666666666666665
388.72624974375765	0.4023333333333236
388.3012300500495	0.3313333333333382
387.8761907753162	0.30033333333332846
387.45113191820036	0.39199999999999513
387.0260534773531	0.32266666666667637
386.60095545141934	0.375666666666657
386.1758378390437	0.305666666666657
385.7507006388731	0.31533333333332847
385.3255438495567	0.30033333333332846
384.90036746973703	0.2846666666666715
384.47517149806316	0.3283333333333333
384.0499559331755	0.2786666666666618
383.6247207737275	0.22133333333333818
383.1994660183596	0.22666666666666666
382.77419166571866	0.27300000000000485
382.3488977144451	0.1596666666666715
381.92358416319234	0.215
381.498251010603	0.2853333333333285
381.0728982553196	0.25666666666666665
380.6475258959869	0.3016666666666667
380.2221339312475	0.38866666666666183
379.7967223597549	0.2646666666666715
379.37129118014496	0.36699999999999516
378.94584039106695	0.4123333333333236
378.5203699911569	0.34833333333333333
378.09487997907036	0.365
377.6693703534434	0.395
377.243841112923	0.3763333333333382
376.8182922561495	0.38233333333332364
376.3927237817721	0.36733333333332363
375.96713568843103	0.47699999999999515
375.541527974769	0.3883333333333333
375.11590063942424	0.4246666666666715
374.6902536810523	0.29066666666665697
374.2645870982871	0.39300000000000485
373.8389008897734	0.35433333333334305
373.41319505415163	0.4110000000000097
372.9874695900686	0.38866666666666183
372.561724496167	0.3203333333333285
372.1359597710851	0.28633333333333816
371.7101754134632	0.38266666666667637
371.2843714219504	0.4033333333333333
370.8585477951872	0.3553333333333285
370.43270453181174	0.33233333333332366
370.00684163046236	0.40166666666666667
369.5809590897924	0.2960000000000097
369.1550569084336	0.3113333333333382
368.7291350850329	0.4216666666666667
368.30319361822427	0.295666666666657
367.87723250665454	0.30766666666667636
367.4512517489663	0.30733333333332363
367.0252513437956	0.309333333333343
366.5992312897829	0.370666666666657
366.17319158557297	0.29433333333334305
365.747132229804	0.3203333333333285
365.32105322111636	0.35766666666667635
364.8949545581462	0.43333333333333335
364.46883623954045	0.3819999999999952
364.0426982639373	0.3139999999999903
363.616540629975	0.39433333333334303
363.19036333628964	0.35133333333333816
362.7641663815303	0.42933333333334306
362.3379497643287	0.4073333333333236
361.9117134833253	0.4026666666666764
361.4854575371626	0.300666666666657
361.05918192447024	0.3883333333333333
360.6328866439016	0.4196666666666715
360.20657169408406	0.39300000000000485
359.7802370736624	0.4660000000000097
359.3538827812684	0.47633333333333816
358.92750881554895	0.38333333333333336
358.5011151751379	0.375
358.07470185867567	0.38333333333333336
357.6482688647919	0.47766666666667634
357.22181619213774	0.39866666666666184
356.7953438393429	0.3819999999999952
356.3688518050455	0.38666666666666666
355.94234008788163	0.37800000000000483
355.51580868649387	0.30199999999999516
355.0892575995162	0.385
354.662686825589	0.3573333333333236
354.2360963633396	0.4010000000000097
353.8094862114171	0.4236666666666618
353.3828563684533	0.40699999999999514
352.95620683308425	0.3736666666666618
352.5295376039439	0.4603333333333285
352.1028486796747	0.4083333333333333
351.67614005890846	0.31033333333332846
351.24941174028345	0.3186666666666618
350.8226637224314	0.45566666666665695
350.395896003997	0.4289999999999903
349.9691085836077	0.40066666666665696
349.5423014599039	0.5330000000000048
349.11547463151516	0.4753333333333285
348.6886280970863	0.5460000000000097
348.26176185524673	0.48266666666667635
347.8348759046305	0.430666666666657
347.40797024387143	0.39
346.9810448716122	0.4266666666666667
346.55409978648225	0.4266666666666667
346.12713498711554	0.4880000000000049
345.70015047214383	0.425666666666657
345.2731462402119	0.3896666666666715
344.8461222899449	0.4363333333333382
344.41907861998106	0.4260000000000097
343.9920152289479	0.4539999999999903
343.56493211548786	0.375
343.1378292782306	0.41699999999999515
342.71070671581214	0.39199999999999513
342.2835644268599	0.4223333333333236
341.85640241001437	0.3453333333333285
341.42922066390713	0.4646666666666715
341.0020191871679	0.3786666666666618
340.5747979784326	0.40800000000000486
340.14755703633097	0.4073333333333236
339.7202963595011	0.3789999999999903
339.2930159465705	0.42833333333333334
338.86571579617737	0.4239999999999903
338.4383959069447	0.45066666666665695
338.0110562775131	0.38566666666665694
337.5836969065141	0.3819999999999952
337.15631779257734	0.4076666666666764
336.72891893433024	0.4196666666666715
336.30150033041315	0.3939999999999903
335.8740619794536	0.5030000000000049
335.44660388008316	0.43800000000000483
335.01912603093155	0.4563333333333382
334.59162843063257	0.4083333333333333
334.164111077818	0.4413333333333382
333.7365739711174	0.3876666666666764
333.3090171091582	0.435
332.88144049057644	0.3383333333333333
332.4538441140017	0.37466666666667153
332.02622797806356	0.4673333333333236
331.59859208138937	0.3660000000000097
331.1709364226152	0.40066666666665696
330.7432610003664	0.4503333333333285
330.31556581327675	0.46166666666666667
329.8878508599694	0.40066666666665696
329.46011613908246	0.4710000000000097
329.0323616492413	0.4589999999999903
328.6045873890776	0.4060000000000097
328.1767933572123	0.4360000000000097
327.7489795522879	0.5030000000000049
327.32114597292536	0.43
326.89329261775424	0.425666666666657
326.4654194853997	0.45733333333332366
326.0375265745001	0.5316666666666666
325.60961388367843	0.49199999999999516
325.1816814115642	0.549333333333343
324.75372915678065	0.5236666666666618
324.3257571179637	0.495666666666657
323.8977652937386	0.5519999999999952
323.46975368273064	0.545666666666657
323.0417222835672	0.44733333333332365
322.61367109488435	0.4166666666666667
322.18560011530076	0.5063333333333382
321.75750934344825	0.4139999999999903
321.32939877795206	0.43966666666667154
320.9012684174352	0.47800000000000487
320.47311826053584	0.5380000000000048
320.0449483058729	0.415
319.6167585520736	0.5303333333333284
319.18854899776323	0.5246666666666715
318.76031964157573	0.45933333333334303
318.332070482132	0.4483333333333333
317.9038015180594	0.5203333333333284
317.4755127479788	0.48199999999999515
317.04720417052425	0.5423333333333237
316.6188757843208	0.47633333333333816
316.1905275879894	0.5113333333333382
315.76215958015536	0.5486666666666619
315.3337717594525	0.6153333333333285
314.9053641244995	0.5289999999999903
314.4769366739217	0.585666666666657
314.0484894063444	0.6213333333333382
313.6200223203948	0.6033333333333334
313.19153541469825	0.5769999999999952
312.7630286878778	0.6803333333333285
312.3345021385521	0.6003333333333285
311.9059557653574	0.5869999999999952
311.4773895669123	0.5539999999999903
311.04880354184195	0.5753333333333285
310.6201976887631	0.5530000000000048
310.1915720063139	0.5946666666666716
309.76292649310653	0.64
309.33426114777274	0.585666666666657
308.90557596892484	0.7393333333333431
308.4768709551988	0.6483333333333333
308.04814610521345	0.5776666666666763
307.61940141759175	0.5786666666666618
307.1906368909525	0.5603333333333285
306.76185252392514	0.5446666666666715
306.3330483151308	0.6206666666666569
305.9042242631923	0.6686666666666619
305.4753803667263	0.6823333333333236
305.0465166243624	0.7333333333333333
304.61763303472367	0.6963333333333381
304.1887295964288	0.7289999999999903
303.7598063080965	0.6766666666666666
303.3308631683563	0.7569999999999951
302.90190017582705	0.7366666666666667
302.4729173291296	0.6683333333333333
302.04391462688477	0.7810000000000097
301.61489206771347	0.7063333333333381
301.18584965024104	0.7316666666666667
300.7567873730861	0.7543333333333431
300.3277052348696	0.6473333333333237
299.89860323421027	0.765
299.4694813697333	0.6910000000000097
299.04033964005737	0.7080000000000048
298.6111780438057	0.8273333333333236
298.18199657959036	0.8819999999999951
297.752795246041	0.8733333333333333
297.3235740417741	0.9430000000000048
296.8943329654107	1.0023333333333235
296.46507201556506	0.795
296.0357911908646	0.8560000000000098
295.6064904899281	0.9046666666666715
295.17716991137206	0.9083333333333333
294.7478294538131	0.915
294.3184691158764	0.9486666666666618
293.8890888961806	0.9366666666666666
293.4596887933425	0.9226666666666764
293.03026880597844	0.9189999999999903
292.6008289327138	0.890666666666657
292.1713691721628	0.830666666666657
291.7418895229465	0.8519999999999951
291.312389983677	0.844333333333343
290.8828705529796	0.78
290.4533312294709	0.7593333333333431
290.02377201176955	0.7130000000000049
289.59419289848563	0.7310000000000098
289.1645938882465	0.6553333333333284
288.7349749796687	0.7719999999999951
288.3053361713668	0.7326666666666763
287.8756774619528	0.7769999999999951
287.44599885005636	0.7936666666666619
287.0163003342854	0.82
286.5865819132608	0.7476666666666764
286.1568435855947	0.839333333333343
285.7270853499102	0.7876666666666764
285.2973072048218	0.7386666666666618
284.8675091489438	0.7633333333333333
284.4376911808905	0.7086666666666618
284.00785329928516	0.6823333333333236
283.577995502742	0.6753333333333285
283.14811778987115	0.7039999999999903
282.7182201592914	0.680666666666657
282.28830260962343	0.66
281.85836513947754	0.684333333333343
281.42840774747015	0.6633333333333333
280.9984304322157	0.6730000000000048
280.5684331923285	0.6633333333333333
280.13841602642736	0.6156666666666569
279.70837893312665	0.53
279.2783219110408	0.6546666666666715
278.84824495877757	0.590666666666657
278.41814807496235	0.5363333333333382
277.98803125820507	0.6256666666666569
277.557894507118	0.5863333333333381
277.12773782031337	0.7326666666666763
276.6975611964142	0.5726666666666763
276.26736463402625	0.6086666666666618
275.8371481317683	0.5926666666666763
275.4069116882459	0.6436666666666618
274.97665530208224	0.5813333333333381
274.54637897188735	0.6036666666666618
274.11608269627345	0.6726666666666764
273.68576647384845	0.6576666666666764
273.2554303032375	0.6833333333333333
272.82507418304425	0.6369999999999951
272.39469811188513	0.7946666666666715
271.9643020883682	0.5803333333333285
271.533886111112	0.5839999999999903
271.10345017872675	0.5330000000000048
270.67299428982454	0.5186666666666618
270.2425184430133	0.49966666666667153
269.8120226369118	0.5903333333333285
269.38150687013	0.5586666666666619
268.9509711412781	0.5923333333333236
268.52041544896383	0.51
268.08983979180596	0.5080000000000049
267.65924416841244	0.45
267.2286285773954	0.4810000000000097
266.7979930173607	0.33
266.36733748692905	0.46199999999999514
265.9366619847041	0.4039999999999903
265.50596650929805	0.2639999999999903
265.07525105931876	0.3113333333333382
264.64451563338287	0.3016666666666667
264.21376023009816	0.23566666666665698
263.78298484807476	0.24233333333332363
263.3521894859162	0.24233333333332363
262.9213741422434	0.2903333333333285
262.4905388156598	0.21866666666666182
262.0596835047756	0.16833333333333333
261.62880820819856	0.20666666666666667
261.1979129245432	0.1386666666666618
260.7669976524172	0.12933333333334304
260.3360623904265	0.1210000000000097
259.90510713718317	0.1503333333333285
259.47413189128866	0.07733333333332364
259.04313665136385	0.07566666666665696
258.6121214160123	0.06166666666666667
258.1810861838397	0.11933333333334303
257.75003095345176	0.0960000000000097
257.31895572346724	0.1503333333333285
256.8878604924875	0.11033333333332848
256.45674525912045	0.0460000000000097
256.0256100219717	0.10233333333332363
255.59445477965582	0.11466666666667152
255.1632795307762	0.06133333333333819
254.73208427393865	0.05633333333333818
254.300869007751	-0.03666666666666667
253.8696337308255	-0.06166666666666667
253.4383784417657	0.0016666666666666668
253.0071031391773	-0.08699999999999515
252.57580782166383	-0.06333333333333334
252.1444924878419	-0.030333333333328483
251.71315713631068	0.0239999999999903
251.28180176568023	-0.006666666666666667
250.85042637454976	0.07166666666666667
250.41903096153368	0.09166666666666666
249.9876155252377	0.0739999999999903
249.55618006426315	0.021000000000009702
249.12472457721364	0.03166666666666667
248.69324906270137	-0.023666666666661815
248.26175351933205	0.0019999999999951493
247.83023794570707	0.02666666666666667
247.3987023404278	0.004666666666671517
246.96714670210864	0.025666666666656967
246.53557102935096	-0.03233333333332363
246.10397532076047	0.0019999999999951493
245.67235957493423	0.008333333333333333
245.24072379048877	0.04666666666666667
244.8090679660212	-0.00800000000000485
244.37739210013714	-0.028333333333333332
243.94569619143803	-0.059333333333343036
243.51398023853605	-0.0539999999999903
243.0822442400283	-0.09933333333334303
242.65048819452264	-0.007333333333323632
242.2187121006139	-0.09066666666665696
241.78691595691873	0.05633333333333818
241.35509976203193	0.016666666666666666
240.9232635145614	-0.02300000000000485
240.49140721310636	0.034666666666671515
240.059530856266	-0.045
239.62763444265474	-0.014333333333343034
239.1957179708696	-0.06766666666667637
238.76378143951197	-0.07699999999999516
238.33182484718105	-0.025
237.89984819248693	-0.11800000000000485
237.46785147403094	0.004333333333343035
237.03583469041013	-0.02266666666667637
236.6037978402259	-0.04866666666666181
236.1717409220883	0.02266666666667637
235.7396639345922	-0.01
235.30756687634332	0.10366666666666181
234.87544974593433	0.034666666666671515
234.44331254197968	-0.026333333333338184
234.01115526307206	-0.07266666666667637
233.57897790781496	-0.013000000000004851
233.1467804748055	-0.10066666666665697
232.7145629626515	-0.07366666666666181
232.28232536995006	-0.07
231.8500676953025	-0.08433333333334303
231.41778993730375	-0.07800000000000486
230.98549209456385	-0.02199999999999515
230.55317416567763	-0.03300000000000485
230.12083614924651	-0.07033333333332849
229.68847804386536	-0.051333333333338185
229.2560998481399	0.021000000000009702
228.82370156066932	-0.04766666666667637
228.39128318005285	-0.06066666666665697
227.95884470488318	0.03800000000000485
227.5263861337704	-0.003666666666661816
227.09390746530931	-0.051666666666666666
226.66140869809703	-0.03733333333332363
226.22888983073057	-0.05266666666667637
225.79635086181347	0.03666666666666667
225.36379178994494	0.005666666666656966
224.93121261371985	0.03266666666667637
224.4986133317331	0.005666666666656966
224.06599394259257	0.0030000000000048508
223.63335444489314	-0.06699999999999515
223.20069483722963	0.0189999999999903
222.76801511819698	-0.05
222.33531528640088	-0.04133333333333818
221.9025953404362	-0.08233333333332363
221.4698552788978	-0.057666666666676365
221.0370951003849	-0.04133333333333818
220.6043148034924	-0.025666666666656967
220.17151438682168	-0.03699999999999515
219.73869384896756	0.03199999999999515
219.30585318852715	0.0339999999999903
218.87299240409308	-0.042666666666676366
218.440111494269	-0.03766666666667637
218.0072104576475	-0.09833333333333333
217.5742892928257	-0.09366666666666182
217.1413479983941	-0.05466666666667152
216.70838657295846	0.006999999999995149
216.27540501510927	-0.02266666666667637
215.8424033234436	0.010333333333328483
215.40938149655196	-0.030333333333328483
214.97633953303793	-0.01699999999999515
214.5432774314942	-0.10766666666667636
214.11019519051567	-0.006666666666666667
213.67709280869065	-0.09766666666667637
213.24397028462707	0.0003333333333284827
212.8108276169111	-0.06566666666665696
212.37766480413984	-0.1386666666666618
211.9444818449016	0.016666666666666666
211.51127873780212	0.050333333333328484
211.0780554814319	-0.02266666666667637
210.64481207438155	0.04199999999999515
210.21154851524156	-0.016666666666666666
209.77826480261763	-0.001333333333338184
209.34496093509603	0.006999999999995149
208.91163691127156	0.004666666666671517
208.47829272973476	-0.013666666666661815
208.0449283890849	0.024666666666671517
207.6115438879125	0.03
207.17813922481238	0.020666666666656966
206.74471439836861	0.034333333333343034
206.31126940718693	0.013333333333333334
205.87780424985567	0.195
