768.7678709118609	0.025
768.3601795435875	0.18666666666666668
767.9524697795084	0.2263333333333382
767.5447416183789	0.2363333333333382
767.1369950589522	0.24300000000000485
766.7292300999793	0.2153333333333285
766.321446740222	0.19233333333332364
765.9136449784291	0.16566666666665697
765.5058248133583	0.135
765.0979862437583	-0.02800000000000485
764.6901292683908	0.1596666666666715
764.2822538860049	0.04533333333332848
763.8743600953579	0.0789999999999903
763.4664478951966	0.15933333333334304
763.0585172842827	0.09033333333332848
762.6505682613673	0.10100000000000971
762.2426008252036	0.12366666666666182
761.8346149745404	0.22066666666665696
761.4266107081372	0.12633333333333818
761.0185880247452	0.295
760.6105469231176	0.135
760.202487402003	0.08966666666667152
759.7944094601592	0.18699999999999514
759.3863130963391	0.15666666666666668
758.9781983092939	0.15300000000000485
758.5700650977723	0.17
758.1619134605319	0.31300000000000483
757.7537433963257	0.12166666666666667
757.3455549039006	0.22966666666667152
756.9373479820074	0.13433333333334305
756.529122629406	0.13466666666667151
756.1208788448427	0.13266666666667637
755.7126166270709	0.17633333333333817
755.3043359748374	0.05266666666667637
754.8960368869017	0.06866666666666181
754.4877193620104	0.14233333333332363
754.0793833989146	0.19666666666666666
753.671028996363	0.08666666666666667
753.2626561531134	0.165
752.8542648679122	0.2310000000000097
752.4458551395104	0.15199999999999514
752.0374269666613	0.33699999999999514
751.6289803481072	0.2886666666666618
751.2205152826077	0.19433333333334304
750.8120317689096	0.25
750.4035298057637	0.1386666666666618
749.9950093919146	0.19333333333333333
749.586470526122	0.23566666666665698
749.1779132071304	0.20733333333332363
748.7693374336906	0.14566666666665695
748.3607432045474	0.09866666666666181
747.9521305184559	0.10300000000000485
747.5434993741673	0.10699999999999515
747.134849770426	0.044333333333343036
746.7261817059784	0.059333333333343036
746.3174951795825	0.07133333333333819
745.9087901899825	0.18466666666667153
745.500066735925	0.09433333333334304
745.091324816159	0.10433333333334303
744.6825644294398	0.1760000000000097
744.2737855745097	0.1089999999999903
743.8649882501174	0.19966666666667152
743.4561724550099	0.12766666666667636
743.0473381879422	0.20033333333332848
742.6384854476568	0.16566666666665697
742.2296142329003	0.17833333333333334
741.8207245424215	0.14699999999999516
741.4118163749715	0.10766666666667636
741.002889729297	0.1910000000000097
740.5939446041443	0.1253333333333285
740.1849809982541	0.2010000000000097
739.7759989103856	0.23166666666666666
739.3669983392814	0.1460000000000097
738.957979283686	0.11766666666667637
738.5489417423437	0.1253333333333285
738.13988571401	0.13333333333333333
737.730811197425	0.08366666666666181
737.3217181913398	0.165
736.9126066944921	0.11199999999999515
736.5034767056397	0.17566666666665698
736.0943282235205	0.17300000000000484
735.6851612468854	0.3233333333333333
735.2759757744748	0.2646666666666715
734.8667718050416	0.13
734.4575493373283	0.19333333333333333
734.0483083700792	0.15266666666667636
733.6390489020412	0.04800000000000485
733.2297709319565	0.13
732.8204744585761	0.1436666666666618
732.4111594806445	0.15699999999999514
732.0018259969019	0.08033333333332848
731.5924740060949	0.17566666666665698
731.1831035069702	0.06966666666667151
730.7737144982744	0.1413333333333382
730.3643069787478	0.14466666666667152
729.9548809471348	0.16666666666666666
729.5454364021842	0.10666666666666667
729.1359733426384	0.07966666666667152
728.7264917672396	0.05533333333332848
728.3169916747303	0.05800000000000485
727.9074730638592	0.09933333333334303
727.4979359333709	0.19166666666666668
727.0883802820032	0.1713333333333382
726.6788061085008	0.23666666666666666
726.2692134116146	0.195
725.8596021900805	0.13833333333333334
725.449972442645	0.0033333333333333335
725.0403241680441	0.09666666666666666
724.630657365033	0.13666666666666666
724.2209720323476	0.11566666666665697
723.8112681687303	0.0810000000000097
723.4015457729232	-0.0010000000000097012
722.9918048436731	-0.017333333333323632
722.5820453797202	0.05566666666665696
722.1722673798067	0.16733333333332362
721.7624708426707	0.16166666666666665
721.3526557670632	0.16433333333334305
720.94282215172	0.1486666666666618
720.5329699953855	0.1839999999999903
720.1230992967957	0.095
719.7132100547013	0.13433333333334305
719.3033022678385	0.13566666666665697
718.8933759349494	0.14699999999999516
718.4834310547741	0.12766666666667636
718.0734676260573	0.15566666666665696
717.6634856475368	0.0739999999999903
717.2534851179572	-0.010333333333328483
716.8434660360522	-0.019666666666671516
716.4334284005727	0.05733333333332363
716.0233722102523	0.07833333333333334
715.6132974638334	0.13433333333334305
715.2032041600562	0.05800000000000485
714.7930922976565	0.1039999999999903
714.3829618753853	0.1160000000000097
713.9728128919741	0.0889999999999903
713.562645346165	0.24033333333332849
713.1524592366941	0.14933333333334303
712.7422545623102	0.17800000000000485
712.3320313217469	0.24166666666666667
711.9217895137442	0.1939999999999903
711.5115291370382	0.20266666666667638
711.1012501903754	0.17533333333332848
710.6909526724916	0.001333333333338184
710.2806365821249	0.08
709.870301918011	0.11766666666667637
709.4599486788967	0.13333333333333333
709.0495768635155	0.14266666666667638
708.6391864706077	0.12166666666666667
708.228777498909	0.2603333333333285
707.8183499471618	0.07266666666667637
707.4079038141018	0.15800000000000486
706.9974390984672	0.09433333333334304
706.5869557989937	0.10699999999999515
706.1764539144258	0.05433333333334303
705.7659334434971	0.20699999999999516
705.3553943849456	0.09366666666666182
704.9448367375052	0.11466666666667152
704.5342604999221	0.12800000000000486
704.123665670926	-0.004666666666671517
703.7130522492591	0.06333333333333334
703.3024202336507	0.0810000000000097
702.8917696228474	0.04766666666667637
702.4811004155808	0.0739999999999903
702.0704126105888	0.06533333333332848
701.6597062066053	0.09966666666667151
701.2489812023722	0.04133333333333818
700.8382375966235	0.12300000000000486
700.4274753880926	0.11266666666667637
700.0166945755177	0.11
699.6058951576366	0.1389999999999903
699.1950771331854	0.10800000000000486
698.7842405008996	0.1139999999999903
698.3733852595066	0.21699999999999514
697.962511407755	0.17166666666666666
697.5516189443744	0.14966666666667153
697.1407078681002	0.10066666666665697
696.7297781776643	0.11300000000000485
696.3188298718089	-0.015666666666656965
695.9078629492653	0.050333333333328484
695.4968774087696	0.06066666666665697
695.0858732490532	0.025
694.6748504688518	0.11066666666665696
694.2638090669034	0.044333333333343036
693.8527490419395	0.12
693.4416703926984	0.10833333333333334
693.0305731179045	0.058999999999990296
692.6194572163027	0.034666666666671515
692.2083226866246	0.06633333333333818
691.7971695276012	0.07199999999999515
691.3859977379644	0.07466666666667152
690.9748073164542	0.25033333333332847
690.563598261802	0.20033333333332848
690.1523705727373	0.11133333333333818
689.7411242479958	0.16199999999999515
689.3298592863133	0.15766666666667636
688.9185756864193	0.043666666666661816
688.5072734470516	0.20266666666667638
688.095952566933	0.07866666666666182
687.6846130448081	0.165
687.273254879404	0.22666666666666666
686.8618780694522	0.28433333333334304
686.4504826136841	0.2796666666666715
686.0390685108379	0.2263333333333382
685.6276357596405	0.32166666666666666
685.216184358828	0.18266666666667636
684.804714307125	0.10300000000000485
684.3932256032718	0.16966666666667152
683.981718245998	0.15800000000000486
683.5701922340304	0.18166666666666667
683.1586475661029	0.27800000000000485
682.747084240951	0.20699999999999516
682.3355022573022	0.19166666666666668
681.9239016138878	0.2153333333333285
681.5122823094371	0.10766666666667636
681.100644342686	0.05800000000000485
680.6889877123616	0.17966666666667153
680.2773124171954	0.16333333333333333
679.8656184559145	0.1989999999999903
679.4539058272569	0.22699999999999515
679.0421745299477	0.2603333333333285
678.6304245627183	0.12233333333332364
678.2186559242936	0.07233333333332363
677.8068686134138	0.12566666666665696
677.395062628804	0.011333333333338184
676.9832379691933	0.08666666666666667
676.5713946333069	0.0639999999999903
676.1595326198826	0.13
675.7476519276477	0.0910000000000097
675.3357525553292	0.08933333333334303
674.9238345016566	0.07566666666665696
674.5118977653547	0.08566666666665697
674.0999423451638	0.14666666666666667
673.6879682398022	0.12433333333334304
673.2759754480059	0.11433333333334303
672.8639639684933	0.15566666666665696
672.4519338000044	0.21433333333334303
672.0398849412645	0.1960000000000097
671.6278173909984	0.14333333333333334
671.2157311479332	0.06
670.8036262108026	0.09466666666667152
670.3915025783316	0.1660000000000097
669.9793602492473	0.13433333333334305
669.5671992222748	0.09466666666667152
669.1550194961476	0.08
668.7428210695929	0.18066666666665696
668.3306039413335	0.1589999999999903
667.9183681100944	0.20166666666666666
667.5061135746137	0.26366666666666183
667.0938403336097	0.26866666666666184
666.6815483858096	0.17266666666667638
666.2692377299405	0.20466666666667152
665.856908364734	0.20666666666666667
665.4445602889106	0.033666666666661814
665.0321935011997	0.12199999999999515
664.6198080003242	0.034666666666671515
664.2074037850176	0.13433333333334305
663.7949808539984	0.08566666666665697
663.3825392059981	0.16966666666667152
662.9700788397353	0.17033333333332848
662.5575997539434	0.18300000000000485
662.1451019473432	0.13233333333332364
661.732585418664	0.08533333333332849
661.3200501666242	0.2439999999999903
660.9074961899598	0.18133333333333818
660.494923487387	0.12800000000000486
660.0823320576351	0.2
659.6697218994246	0.19233333333332364
659.2570930114873	0.11433333333334303
658.8444453925414	0.08199999999999515
658.4317790413164	0.135
658.0190939565284	0.18266666666667636
657.6063901369134	0.11199999999999515
657.1936675811899	0.21433333333334303
656.7809262880805	0.2
656.3681662563105	0.21699999999999514
655.9553874846001	0.21433333333334303
655.5425899716812	0.2639999999999903
655.1297737162741	0.24
654.7169387170998	0.06066666666665697
654.3040849728786	0.20333333333333334
653.8912124823422	0.1260000000000097
653.4783212442112	0.18766666666667636
653.0654112572063	0.21633333333333818
652.6524825200479	0.13666666666666666
652.2395350314655	0.2036666666666618
651.8265687901776	0.28566666666665697
651.4135837949091	0.19166666666666668
651.0005800443785	0.14433333333334303
650.5875575373129	0.12866666666666182
650.1745162724332	0.1239999999999903
649.7614562484596	0.06766666666667637
649.348377464113	0.135
648.9352799181206	0.10033333333332849
648.5221636092008	0.21333333333333335
648.1090285360741	0.2239999999999903
647.6958746974614	0.41633333333333816
647.2827020920896	0.27
646.8695107186775	0.21266666666667636
646.4563005759431	0.2889999999999903
646.0430716626075	0.28766666666667634
645.6298239773976	0.1946666666666715
645.2165575190319	0.1539999999999903
644.8032722862267	0.16699999999999515
644.3899682777028	0.10533333333332848
643.9766454921893	0.09666666666666666
643.5633039283982	0.15333333333333332
643.1499435850546	0.16033333333332847
642.7365644608705	0.19266666666667637
642.3231665545771	0.1189999999999903
641.9097498648889	0.0760000000000097
641.4963143905242	0.017333333333323632
641.0828601302013	0.11533333333332849
640.6693870826476	0.12933333333334304
640.2558952465771	0.15933333333334304
639.8423846207105	0.16733333333332362
639.4288552037599	0.19133333333333818
639.0153069944565	0.2763333333333382
638.6017399915146	0.21433333333334303
638.1881541936483	0.21800000000000486
637.7745495995827	0.15199999999999514
637.3609262080296	0.16933333333334302
636.9472840177161	0.13066666666665697
636.5336230273545	0.17800000000000485
636.119943235665	0.17566666666665698
635.7062446413621	0.26600000000000973
635.2925272431705	0.1839999999999903
634.8787910398067	0.18133333333333818
634.4650360299848	0.26733333333332365
634.0512622124211	0.2203333333333285
633.6374695858384	0.043333333333333335
633.2236581489551	0.1710000000000097
632.8098279004832	0.2039999999999903
632.3959788391412	0.1960000000000097
631.9821109636476	0.26866666666666184
631.5682242727231	0.22
631.1543187650774	0.2789999999999903
630.7403944394289	0.1810000000000097
630.3264512944984	0.2773333333333236
629.9124893289999	0.3463333333333382
629.4985085416498	0.21666666666666667
629.08450893116	0.16666666666666666
628.6704904962556	0.19533333333332847
628.2564532356485	0.19266666666667637
627.8423971480548	0.18733333333332364
627.4283222321847	0.2626666666666764
627.0142284867629	0.22166666666666668
626.6001159105014	0.22766666666667637
626.1859845021144	0.1760000000000097
625.771834260316	0.17
625.3576651838268	0.16333333333333333
624.9434772713589	0.10833333333333334
624.5292705216264	0.17
624.1150449333433	0.22166666666666668
623.7008005052281	0.18133333333333818
623.2865372359929	0.20066666666665697
622.872255124354	0.17533333333332848
622.457954169021	0.25266666666667636
622.0436343687147	0.17333333333333334
621.629295722145	0.08833333333333333
621.2149382280302	0.22066666666665696
620.8005618850757	0.16133333333333819
620.3861666920067	0.21
619.9717526475306	0.2263333333333382
619.5573197503596	0.250666666666657
619.1428679992077	0.24166666666666667
618.7283973927935	0.34300000000000486
618.3139079298264	0.27933333333334304
617.8993996090189	0.31966666666667154
617.4848724290849	0.3233333333333333
617.0703263887341	0.3586666666666618
616.6557614866873	0.27233333333332366
616.2411777216521	0.13166666666666665
615.8265750923404	0.29300000000000487
615.411953597462	0.16766666666667637
614.9973132357354	0.1946666666666715
614.5826540058705	0.1960000000000097
614.1679759065792	0.20199999999999516
613.7532789365712	0.3396666666666715
613.3385630945629	0.2453333333333285
612.9238283792641	0.29266666666667634
612.5090747893845	0.20266666666667638
612.0943023236341	0.22866666666666183
611.6795109807312	0.27566666666665696
611.2647007593813	0.1736666666666618
610.8498716582986	0.2086666666666618
610.4350236761907	0.22866666666666183
610.0201568117717	0.21466666666667153
609.6052710637535	0.26366666666666183
609.1903664308418	0.2489999999999903
608.7754429117483	0.29266666666667634
608.3605005051894	0.22566666666665697
607.9455392098686	0.2713333333333382
607.5305590245018	0.10199999999999515
607.1155599477905	0.3289999999999903
606.700541978453	0.08266666666667637
606.2855051151969	0.20666666666666667
605.8704493567299	0.1739999999999903
605.4553747017618	0.24466666666667153
605.0402811490067	0.21266666666667636
604.6251686971679	0.27
604.2100373449596	0.21300000000000485
603.794887091085	0.32566666666665695
603.3797179342605	0.3553333333333285
602.9645298731892	0.254333333333343
602.5493229065834	0.15800000000000486
602.1340970331482	0.4060000000000097
601.7188522515959	0.16800000000000484
601.3035885606339	0.26166666666666666
600.8883059589721	0.17533333333332848
600.4730044453094	0.12800000000000486
600.0576840183686	0.1139999999999903
599.6423446768466	0.21199999999999514
599.2269864194574	0.3346666666666715
598.8116092449044	0.22333333333333333
598.3962131518952	0.27666666666666667
597.9807981391417	0.27166666666666667
597.5653642053495	0.3333333333333333
597.1499113492239	0.27699999999999514
596.7344395694705	0.309333333333343
596.3189488648012	0.2539999999999903
595.9034392339214	0.2453333333333285
595.4879106755388	0.24866666666666182
595.0723631883525	0.19333333333333333
594.6567967710808	0.23300000000000484
594.2412114224227	0.10966666666667152
593.825607141088	0.26666666666666666
593.4099839257777	0.21
592.9943417752039	0.16066666666665697
592.57868068807	0.27566666666665696
592.1630006630813	0.18166666666666667
591.7473016989411	0.28766666666667634
591.3315837943614	0.24066666666665695
590.9158469480456	0.310666666666657
590.5000911586968	0.24766666666667636
590.0843164250163	0.3663333333333382
589.6685227457202	0.3139999999999903
589.2527101195077	0.29333333333333333
588.8368785450818	0.25033333333332847
588.4210280211462	0.17199999999999516
588.0051585464104	0.25
587.5892701195799	0.21766666666667636
587.1733627393536	0.2510000000000097
586.7574364044372	0.23
586.341491113538	0.24
585.9255268653596	0.28766666666667634
585.5095436586031	0.25233333333332364
585.0935414919694	0.04133333333333818
584.6775203641728	0.115
584.26148027391	0.14333333333333334
583.8454212198844	0.1710000000000097
583.4293432007971	0.16033333333332847
583.0132462153579	0.14533333333332848
582.5971302622678	0.16
582.1809953402259	0.14300000000000485
581.7648414479354	0.105
581.3486685841062	0.18233333333332363
580.9324767474351	0.17800000000000485
580.5162659366252	0.2436666666666618
580.1000361503757	0.16699999999999515
579.6837873873984	0.13699999999999515
579.267519646388	0.13033333333332847
578.8512329260478	0.09
578.4349272250832	0.1489999999999903
578.0186025421867	0.17433333333334303
577.6022588760703	0.1646666666666715
577.1858962254329	0.285
576.7695145889734	0.11800000000000485
576.3531139653909	0.2589999999999903
575.9366943533951	0.22300000000000486
575.5202557516828	0.16666666666666666
575.1037981589529	0.2733333333333333
574.6873215739046	0.23566666666665698
574.2708259952475	0.0939999999999903
573.854311421674	0.14533333333332848
573.4377778518897	0.19300000000000486
573.0212252845891	0.115
572.6046537184778	0.21866666666666182
572.1880631522547	0.14166666666666666
571.7714535846209	0.17566666666665698
571.3548250142687	0.19666666666666666
570.9381774399104	0.14833333333333334
570.5215108602383	0.06266666666667636
570.1048252739535	0.175
569.6881206797506	0.13699999999999515
569.2713970763372	0.22366666666666182
568.854654462408	0.2923333333333236
568.4378928366642	0.3030000000000049
568.0211121978002	0.2569999999999952
567.6043125445195	0.22866666666666183
567.187493875521	0.2060000000000097
566.7706561895014	0.27699999999999514
566.3537994851577	0.22666666666666666
565.9369237611908	0.1663333333333382
565.5200290162996	0.17300000000000484
565.1031152491812	0.19366666666666182
564.6861824585301	0.14266666666667638
564.2692306430516	0.1789999999999903
563.8522598014383	0.17466666666667152
563.4352699323913	0.1546666666666715
563.0182610345986	0.09133333333333818
562.6012331067724	0.22166666666666668
562.1841861476007	0.11333333333333333
561.7671201557823	0.27433333333334303
561.3500351300121	0.2836666666666618
560.9329310689911	0.2260000000000097
560.515807971416	0.19866666666666183
560.0986658359838	0.11800000000000485
559.6815046613867	0.2246666666666715
559.2643244463217	0.17466666666667152
558.847125189492	0.23066666666665697
558.4299068895878	0.25033333333332847
558.012669545306	0.23199999999999515
557.5954131553412	0.2739999999999903
557.1781377183946	0.2510000000000097
556.7608432331607	0.21733333333332364
556.343529698332	0.2746666666666715
555.926197112601	0.30666666666666664
555.5088454746709	0.35300000000000487
555.0914747832342	0.26300000000000484
554.6740850369855	0.26600000000000973
554.2566762346152	0.2646666666666715
553.8392483748285	0.21433333333334303
553.4218014563138	0.1963333333333382
553.0043354777655	0.2239999999999903
552.5868504378763	0.2603333333333285
552.1693463353471	0.23533333333332848
551.7518231688704	0.310666666666657
551.3342809371366	0.33933333333334303
550.91671963884	0.26066666666665694
550.49913927268	0.25833333333333336
550.0815398373467	0.3186666666666618
549.6639213315347	0.26300000000000484
549.2462837539342	0.1910000000000097
548.8286271032442	0.36833333333333335
548.4109513781551	0.29633333333333817
547.9932565773614	0.27933333333334304
547.5755426995535	0.27666666666666667
547.1578097434281	0.21433333333334303
546.7400577076776	0.24
546.3222865909923	0.35
545.9044963920649	0.28433333333334304
545.4866871095918	0.25233333333332364
545.0688587422615	0.22366666666666182
544.6510112887704	0.2946666666666715
544.2331447478026	0.4136666666666618
543.8152591180612	0.2986666666666618
543.39735439823	0.425
542.979430587006	0.39433333333334303
542.5614876830728	0.3203333333333285
542.1435256851336	0.3313333333333382
541.7255445918723	0.40699999999999514
541.3075444019836	0.3630000000000049
540.8895251141511	0.36266666666667635
540.471486727076	0.4110000000000097
540.0534292394465	0.43800000000000483
539.6353526499506	0.41633333333333816
539.217256957283	0.33433333333334303
538.7991421601253	0.48699999999999516
538.3810082571806	0.5189999999999902
537.962855247133	0.48333333333333334
537.5446831286725	0.49233333333332363
537.1264919004875	0.5663333333333381
536.7082815612724	0.5286666666666618
536.2900521097155	0.5083333333333333
535.871803544509	0.5980000000000049
535.4535358643325	0.4789999999999903
535.0352490678893	0.44
534.6169431538631	0.6186666666666618
534.19861812094	0.5783333333333334
533.78027396781	0.5310000000000097
533.361910693168	0.5436666666666619
532.9435282956977	0.5373333333333237
532.5251267740915	0.6019999999999951
532.1067061270311	0.58
531.6882663532132	0.7083333333333334
531.2698074513237	0.7180000000000049
530.8513294200487	0.6380000000000049
530.4328322580762	0.6786666666666619
530.0143159641009	0.6916666666666667
529.5957805368043	0.5723333333333236
529.1772259748768	0.6319999999999951
528.7586522770022	0.8189999999999903
528.3400594418729	0.8226666666666763
527.9214474681769	0.8180000000000048
527.5028163546002	0.839333333333343
527.0841660998245	0.7336666666666618
526.6654967025466	0.8039999999999903
526.2468081614481	0.7973333333333237
525.8281004752192	0.8146666666666715
525.4093736425393	0.8410000000000097
524.9906276621032	0.9513333333333381
524.5718625325945	0.9943333333333431
524.1530782526993	0.9439999999999903
523.7342748211013	1.1766666666666667
523.3154522364929	1.115666666666657
522.896610497558	1.0653333333333286
522.4777496029803	1.1289999999999902
522.0588695514436	1.155
521.6399703416404	1.119333333333343
521.2210519722521	1.21
520.8021144419671	1.2753333333333285
520.3831577494668	1.264333333333343
519.9641818934351	1.315666666666657
519.5451868725623	1.4180000000000048
519.1261726855342	1.5403333333333284
518.7071393310304	1.6153333333333284
518.2880868077347	1.5446666666666715
517.8690151143393	1.6869999999999952
517.449924249526	1.880666666666657
517.0308142119765	1.98
516.6116850003721	1.9733333333333334
516.1925366134055	2.125666666666657
515.7733690497562	2.331333333333338
515.3541823081079	2.3946666666666716
514.934976387142	2.54
514.5157512855491	2.6889999999999903
514.0965070020062	2.832666666666676
513.6772435352017	3.1396666666666717
513.2579608838126	3.3663333333333383
512.8386590465294	3.6189999999999904
512.4193380220314	3.983666666666662
511.99999780900464	4.157666666666676
511.580638406122	4.633666666666662
511.1612598120781	5.110666666666657
510.7418620255524	5.581999999999995
510.3224450452243	6.1526666666666765
509.9030088697755	6.690333333333329
509.48355349789404	7.126666666666667
509.06407892825723	7.641333333333338
508.6445851595488	8.447666666666676
508.22507219044604	9.022666666666677
507.8055400196393	9.723000000000004
507.3859886458058	10.19399999999999
506.96641806762716	10.815333333333328
506.5468282837806	11.467666666666677
506.12721929295435	11.726666666666667
505.7075910938277	12.15
505.2879436850803	12.270666666666656
504.8682770653892	12.452666666666676
504.4485912334448	12.279666666666671
504.02888618792	11.974666666666671
503.6091619274987	11.70966666666667
503.1894184508558	11.294333333333343
502.76965575668174	10.75
502.3498738436494	10.201666666666666
501.93007271044036	9.648000000000005
501.51025235573195	9.07100000000001
501.09041277821007	8.471333333333337
500.67055397655207	7.78899999999999
500.25067594943516	7.24399999999999
499.8307786955409	6.744666666666672
499.41086221354453	6.281666666666666
498.9909265021319	5.802333333333324
498.5709715599803	5.3286666666666616
498.15099738576487	4.989333333333343
497.73100397816495	4.64600000000001
497.31099133586446	4.2716666666666665
496.89095945753843	4.184333333333343
496.4709083418663	3.72
496.050837987521	3.5233333333333334
495.6307483931907	3.495
495.21063955754823	3.161999999999995
494.790511479271	3.0996666666666717
494.37036415703403	2.9653333333333283
493.95019758952327	2.8466666666666667
493.53001177541165	2.6253333333333284
493.1098067133765	2.4960000000000098
492.68958240209287	2.4323333333333235
492.26933884024237	2.203666666666662
491.8490760265023	2.145
491.42879395954776	2.10899999999999
491.0084926380517	1.9880000000000049
490.5881720607	1.955666666666657
490.1678322261635	1.845
489.7474731331217	1.770666666666657
489.32709478024304	1.6746666666666714
488.9066971662135	1.6766666666666667
488.48628028970614	1.6923333333333237
488.0658441493982	1.5339999999999903
487.6453887439581	1.4833333333333334
487.224914072072	1.3986666666666618
486.8044201324106	1.3896666666666715
486.38390692364896	1.3563333333333383
485.96337444446226	1.3346666666666716
485.5428226935299	1.3530000000000049
485.1222516695248	1.2889999999999904
484.7016613711199	1.1576666666666764
484.28105179699037	1.1903333333333286
483.86042294581335	1.0730000000000048
483.43977481626627	1.115666666666657
483.01910740701766	1.0323333333333236
482.59842071674257	0.9939999999999903
482.1777147441205	1.0723333333333236
481.75698948782224	1.035666666666657
481.33624494652287	1.04
480.91548111889534	0.9930000000000049
480.4946980036104	0.9216666666666666
480.0738955993496	0.8676666666666764
479.65307390478165	0.8123333333333236
479.2322329185816	0.87
478.81137263941804	0.8880000000000049
478.3904930659726	0.8883333333333333
477.9695941969139	0.7966666666666666
477.5486760309148	0.8473333333333236
477.127738566644	0.7610000000000097
476.70678180278304	0.7463333333333382
476.28580573800053	0.7606666666666569
475.86481037096945	0.7213333333333382
475.44379570035835	0.7923333333333237
475.0227617248467	0.7783333333333333
474.6017084431009	0.8
474.1806358537961	0.6766666666666666
473.75954395560086	0.7239999999999903
473.3384327471903	0.71
472.91730222723737	0.6139999999999903
472.4961523944085	0.7083333333333334
472.07498324737657	0.7543333333333431
471.6537947848168	0.6946666666666715
471.2325870053998	0.714333333333343
470.81135990779217	0.6239999999999903
470.3901134906646	0.7560000000000097
469.9688477526965	0.655
469.54756269254995	0.6180000000000049
469.12625830890016	0.5880000000000049
468.7049346004113	0.579333333333343
468.28359156576283	0.5066666666666667
467.86222920361905	0.49033333333332846
467.4408475126529	0.5810000000000097
467.0194464915286	0.5560000000000097
466.5980261389256	0.6786666666666619
466.176586453506	0.6076666666666763
465.75512743394273	0.5196666666666715
465.3336490789022	0.6036666666666618
464.91215138705746	0.5163333333333382
464.490634357077	0.5776666666666763
464.0690979876294	0.6096666666666715
463.647542277379	0.684333333333343
463.22596722500305	0.655666666666657
462.80437282916796	0.6363333333333382
462.3827590885402	0.48833333333333334
461.96112600178395	0.4526666666666764
461.5394735675766	0.4896666666666715
461.1178017845845	0.4710000000000097
460.69611065147194	0.5056666666666569
460.2744001669097	0.43800000000000483
459.8526703295598	0.4633333333333333
459.4309211380996	0.4980000000000048
459.00915259119125	0.49733333333332364
458.58736468750317	0.5046666666666715
458.1655574256997	0.4626666666666764
457.74373080445605	0.42533333333332846
457.321884822432	0.4639999999999903
456.9000194782984	0.45233333333332365
456.47813477071736	0.4489999999999903
456.0562306983639	0.43333333333333335
455.634307259898	0.435
455.2123644539904	0.3869999999999951
454.7904022793011	0.39166666666666666
454.36842073450293	0.430666666666657
453.9464198182602	0.35266666666667634
453.5243995292416	0.4533333333333333
453.1023598661026	0.3476666666666764
452.6803008275226	0.5339999999999903
452.2582224121617	0.36199999999999516
451.83612461868404	0.37766666666667636
451.41400744575174	0.3310000000000097
450.9918708920399	0.35766666666667635
450.56971495620627	0.26233333333332365
450.1475396369195	0.3630000000000049
449.72534493283945	0.430666666666657
449.3031308426391	0.4086666666666618
448.88089736497835	0.39199999999999513
448.4586444985215	0.49266666666667636
448.03637224192846	0.4053333333333285
447.6140805938743	0.285
447.19176955301896	0.36266666666667635
446.7694391180224	0.23166666666666666
446.347089287551	0.255
445.9247200602713	0.38666666666666666
445.50233143484525	0.22133333333333818
445.079923409935	0.30033333333332846
444.6574959842027	0.18133333333333818
444.2350491563169	0.35833333333333334
443.8125829249397	0.2460000000000097
443.390097288731	0.3523333333333236
442.9675922463529	0.39300000000000485
442.54506779647625	0.434333333333343
442.12252393775657	0.45666666666666667
441.69996066885807	0.3573333333333236
441.277377988443	0.45366666666666183
440.85477589517325	0.28
440.43215438771324	0.32666666666666666
440.00951346472505	0.4216666666666667
439.58685312487074	0.41433333333334305
439.16417336680587	0.37966666666667154
438.7414741892034	0.4533333333333333
438.31875559071676	0.324333333333343
437.8960175700124	0.31800000000000483
437.4732601257437	0.36666666666666664
437.05048325658146	0.29633333333333817
436.62768696118343	0.319333333333343
436.2048712382074	0.309333333333343
435.7820360863154	0.3730000000000048
435.3591815041739	0.4066666666666667
434.9363074904384	0.3889999999999903
434.51341404377115	0.465
434.09050116282765	0.3089999999999903
433.6675688462765	0.40800000000000486
433.24461709277546	0.37533333333332847
432.8216459009802	0.37800000000000483
432.3986552695505	0.4146666666666715
431.9756451971529	0.36133333333333817
431.55261568244293	0.4336666666666618
431.12956672408274	0.3596666666666715
430.70649832072354	0.41766666666667634
430.28341047103396	0.2986666666666618
429.8603031736717	0.5076666666666764
429.43717642729246	0.4986666666666618
429.0140302305539	0.440666666666657
428.5908645821203	0.41699999999999515
428.1676794806494	0.42300000000000487
427.74447492479686	0.38
427.3212509132182	0.4289999999999903
426.89800744458205	0.49
426.4747445175375	0.38566666666665694
426.05146213074664	0.4073333333333236
425.6281602828629	0.440666666666657
425.20483897255264	0.39800000000000485
424.7814981984672	0.425666666666657
424.3581379592665	0.3760000000000097
423.9347582536018	0.5469999999999952
423.5113590801394	0.53
423.0879404375329	0.3346666666666715
422.66450232444	0.3763333333333382
422.24104473951405	0.49966666666667153
421.8175676814172	0.41300000000000486
421.39407114880504	0.44266666666667637
420.97055514033093	0.5026666666666764
420.54701965465495	0.43266666666667636
420.1234646904282	0.44466666666667154
419.6998902463128	0.5396666666666715
419.2762963209644	0.3976666666666764
418.8526829130364	0.4153333333333285
418.4290500211822	0.4546666666666715
418.00539764406386	0.4266666666666667
417.5817257803349	0.46300000000000485
417.15803442864865	0.4063333333333382
416.7343235876586	0.31266666666667636
416.3105932560246	0.335
415.8868434324023	0.38
415.4630741154451	0.4060000000000097
415.03928530380216	0.48433333333334305
414.61547699613976	0.5076666666666764
414.1916491911049	0.49533333333332846
413.767801887351	0.45733333333332366
413.34393508353367	0.435
412.9200487783128	0.4553333333333285
412.49614297033526	0.37966666666667154
412.0722176582611	0.3413333333333382
411.64827284073493	0.4439999999999903
411.22430851642116	0.30133333333333817
410.80032468396655	0.3426666666666764
410.376321342029	0.3260000000000097
409.9522984892553	0.3596666666666715
409.5282561243077	0.30233333333332363
409.1041942458351	0.33666666666666667
408.6801128524889	0.44
408.2560119429202	0.46233333333332366
407.83189151578915	0.4603333333333285
407.40775156974246	0.5369999999999951
406.9835921034358	0.5389999999999903
406.5594131155161	0.4896666666666715
406.1352146046411	0.43966666666667154
405.7109965694642	0.535
405.28675900863453	0.420666666666657
404.86250192079893	0.49233333333332363
404.43822530461745	0.4510000000000097
404.01392915874123	0.370666666666657
403.5896134818172	0.2986666666666618
403.1652782724945	0.4046666666666715
402.740923529433	0.4313333333333382
402.31654925127964	0.38033333333332847
401.8921554366857	0.38800000000000484
401.4677420843024	0.42266666666667635
401.0433091927745	0.37966666666667154
400.61885676076406	0.4386666666666618
400.1943847869137	0.38800000000000484
399.7698932698746	0.41699999999999515
399.345382208296	0.36266666666667635
398.9208516008334	0.4546666666666715
398.4963014461336	0.3760000000000097
398.0717317428458	0.5369999999999951
397.647142489617	0.52
397.2225336851048	0.46233333333332366
396.797905327954	0.48699999999999516
396.3732574168138	0.5276666666666764
395.9485899503309	0.42266666666667635
395.52390292716103	0.5646666666666715
395.0991963459511	0.4053333333333285
394.6744702053458	0.4116666666666667
394.2497245039943	0.3813333333333382
393.8249592405521	0.42133333333333817
393.40017441366183	0.39166666666666666
392.9753700219747	0.4036666666666618
392.5505460641355	0.3510000000000097
392.1257025387955	0.29833333333333334
391.70083944460373	0.21566666666665696
391.2759567802049	0.2973333333333236
390.8510545442461	0.31266666666667636
390.42613273537836	0.30266666666667635
390.00119135225094	0.32266666666667637
389.57623039350636	0.405
389.1512498577893	0.48300000000000487
388.72624974375765	0.4553333333333285
388.3012300500495	0.34800000000000486
387.8761907753162	0.37166666666666665
387.45113191820036	0.385
387.0260534773531	0.3233333333333333
386.60095545141934	0.3436666666666618
386.1758378390437	0.49333333333333335
385.7507006388731	0.4469999999999951
385.3255438495567	0.405
384.90036746973703	0.4553333333333285
384.47517149806316	0.48
384.0499559331755	0.36266666666667635
383.6247207737275	0.41333333333333333
383.1994660183596	0.4533333333333333
382.77419166571866	0.3276666666666764
382.3488977144451	0.36933333333334306
381.92358416319234	0.31266666666667636
381.498251010603	0.2103333333333285
381.0728982553196	0.2936666666666618
380.6475258959869	0.24933333333334304
380.2221339312475	0.20566666666665698
379.7967223597549	0.31766666666667637
379.37129118014496	0.29833333333333334
378.94584039106695	0.39366666666666184
378.5203699911569	0.36133333333333817
378.09487997907036	0.3389999999999903
377.6693703534434	0.36733333333332363
377.243841112923	0.34066666666665696
376.8182922561495	0.439333333333343
376.3927237817721	0.4513333333333382
375.96713568843103	0.515666666666657
375.541527974769	0.43666666666666665
375.11590063942424	0.4510000000000097
374.6902536810523	0.36833333333333335
374.2645870982871	0.33366666666666184
373.8389008897734	0.34933333333334304
373.41319505415163	0.41266666666667634
372.9874695900686	0.4910000000000097
372.561724496167	0.41633333333333816
372.1359597710851	0.45933333333334303
371.7101754134632	0.47
371.2843714219504	0.44233333333332364
370.8585477951872	0.3436666666666618
370.43270453181174	0.44566666666665694
370.00684163046236	0.4460000000000097
369.5809590897924	0.3680000000000048
369.1550569084336	0.3689999999999903
368.7291350850329	0.35633333333333816
368.30319361822427	0.4339999999999903
367.87723250665454	0.454333333333343
367.4512517489663	0.4796666666666715
367.0252513437956	0.49766666666667636
366.5992312897829	0.5586666666666619
366.17319158557297	0.5330000000000048
365.747132229804	0.5703333333333285
365.32105322111636	0.515666666666657
364.8949545581462	0.57
364.46883623954045	0.5786666666666618
364.0426982639373	0.4760000000000097
363.616540629975	0.43166666666666664
363.19036333628964	0.48333333333333334
362.7641663815303	0.520666666666657
362.3379497643287	0.49466666666667153
361.9117134833253	0.38266666666667637
361.4854575371626	0.5093333333333431
361.05918192447024	0.5260000000000097
360.6328866439016	0.5019999999999951
360.20657169408406	0.5663333333333381
359.7802370736624	0.4853333333333285
359.3538827812684	0.4483333333333333
358.92750881554895	0.45366666666666183
358.5011151751379	0.4889999999999903
358.07470185867567	0.515666666666657
357.6482688647919	0.4736666666666618
357.22181619213774	0.495666666666657
356.7953438393429	0.48133333333333816
356.3688518050455	0.5303333333333284
355.94234008788163	0.555
355.51580868649387	0.5536666666666619
355.0892575995162	0.5243333333333431
354.662686825589	0.5566666666666666
354.2360963633396	0.4683333333333333
353.8094862114171	0.4676666666666764
353.3828563684533	0.5173333333333237
352.95620683308425	0.5376666666666764
352.5295376039439	0.5219999999999951
352.1028486796747	0.6003333333333285
351.67614005890846	0.5696666666666715
351.24941174028345	0.5826666666666763
350.8226637224314	0.5916666666666667
350.395896003997	0.515666666666657
349.9691085836077	0.4539999999999903
349.5423014599039	0.42633333333333817
349.11547463151516	0.555
348.6886280970863	0.46566666666665696
348.26176185524673	0.4546666666666715
347.8348759046305	0.604333333333343
347.40797024387143	0.52
346.9810448716122	0.5880000000000049
346.55409978648225	0.5253333333333284
346.12713498711554	0.5373333333333237
345.70015047214383	0.4803333333333285
345.2731462402119	0.41300000000000486
344.8461222899449	0.4633333333333333
344.41907861998106	0.44666666666666666
343.9920152289479	0.539333333333343
343.56493211548786	0.5710000000000097
343.1378292782306	0.4626666666666764
342.71070671581214	0.5510000000000097
342.2835644268599	0.525
341.85640241001437	0.5136666666666618
341.42922066390713	0.45233333333332365
341.0020191871679	0.5213333333333382
340.5747979784326	0.5683333333333334
340.14755703633097	0.454333333333343
339.7202963595011	0.46366666666666184
339.2930159465705	0.4816666666666667
338.86571579617737	0.4866666666666667
338.4383959069447	0.4816666666666667
338.0110562775131	0.4626666666666764
337.5836969065141	0.4853333333333285
337.15631779257734	0.47199999999999515
336.72891893433024	0.6139999999999903
336.30150033041315	0.5246666666666715
335.8740619794536	0.6213333333333382
335.44660388008316	0.5360000000000097
335.01912603093155	0.6223333333333236
334.59162843063257	0.5380000000000048
334.164111077818	0.48699999999999516
333.7365739711174	0.6186666666666618
333.3090171091582	0.5563333333333382
332.88144049057644	0.5780000000000048
332.4538441140017	0.6833333333333333
332.02622797806356	0.6219999999999951
331.59859208138937	0.6273333333333236
331.1709364226152	0.6566666666666666
330.7432610003664	0.48300000000000487
330.31556581327675	0.5396666666666715
329.8878508599694	0.5326666666666764
329.46011613908246	0.5016666666666667
329.0323616492413	0.5486666666666619
328.6045873890776	0.5886666666666618
328.1767933572123	0.5089999999999903
327.7489795522879	0.4713333333333382
327.32114597292536	0.540666666666657
326.89329261775424	0.57
326.4654194853997	0.5333333333333333
326.0375265745001	0.47199999999999515
325.60961388367843	0.5769999999999952
325.1816814115642	0.5726666666666763
324.75372915678065	0.5396666666666715
324.3257571179637	0.585
323.8977652937386	0.5110000000000097
323.46975368273064	0.555
323.0417222835672	0.57
322.61367109488435	0.6360000000000097
322.18560011530076	0.6206666666666569
321.75750934344825	0.6266666666666667
321.32939877795206	0.6180000000000049
320.9012684174352	0.6180000000000049
320.47311826053584	0.525666666666657
320.0449483058729	0.525666666666657
319.6167585520736	0.5996666666666716
319.18854899776323	0.5863333333333381
318.76031964157573	0.5876666666666763
318.332070482132	0.670666666666657
317.9038015180594	0.6073333333333236
317.4755127479788	0.575666666666657
317.04720417052425	0.6763333333333382
316.6188757843208	0.5869999999999952
316.1905275879894	0.5666666666666667
315.76215958015536	0.6989999999999903
315.3337717594525	0.6486666666666618
314.9053641244995	0.7223333333333236
314.4769366739217	0.7289999999999903
314.0484894063444	0.6466666666666666
313.6200223203948	0.6736666666666619
313.19153541469825	0.5660000000000097
312.7630286878778	0.6386666666666618
312.3345021385521	0.595666666666657
311.9059557653574	0.6030000000000049
311.4773895669123	0.6533333333333333
311.04880354184195	0.685666666666657
310.6201976887631	0.5866666666666667
310.1915720063139	0.6853333333333285
309.76292649310653	0.5936666666666618
309.33426114777274	0.6216666666666667
308.90557596892484	0.6710000000000097
308.4768709551988	0.6496666666666715
308.04814610521345	0.7366666666666667
307.61940141759175	0.7693333333333431
307.1906368909525	0.7593333333333431
306.76185252392514	0.7786666666666618
306.3330483151308	0.7969999999999952
305.9042242631923	0.8969999999999951
305.4753803667263	0.8519999999999951
305.0465166243624	0.875
304.61763303472367	0.7939999999999903
304.1887295964288	0.7643333333333431
303.7598063080965	0.8566666666666667
303.3308631683563	0.905666666666657
302.90190017582705	0.8433333333333334
302.4729173291296	0.9039999999999903
302.04391462688477	0.7353333333333285
301.61489206771347	0.7476666666666764
301.18584965024104	0.7483333333333333
300.7567873730861	0.7873333333333237
300.3277052348696	0.7680000000000049
299.89860323421027	0.835
299.4694813697333	0.9830000000000049
299.04033964005737	0.939333333333343
298.6111780438057	0.8583333333333333
298.18199657959036	0.7910000000000097
297.752795246041	0.8963333333333382
297.3235740417741	0.974333333333343
296.8943329654107	0.9483333333333334
296.46507201556506	0.859333333333343
296.0357911908646	0.8643333333333431
295.6064904899281	0.8946666666666715
295.17716991137206	1.0013333333333383
294.7478294538131	1.0289999999999904
294.3184691158764	0.9539999999999903
293.8890888961806	0.9433333333333334
293.4596887933425	0.9676666666666763
293.03026880597844	0.9880000000000049
292.6008289327138	0.9403333333333285
292.1713691721628	0.9873333333333236
291.7418895229465	1.0353333333333286
291.312389983677	0.9026666666666764
290.8828705529796	0.9363333333333382
290.4533312294709	0.9983333333333333
290.02377201176955	0.9419999999999952
289.59419289848563	1.0003333333333284
289.1645938882465	0.9796666666666716
288.7349749796687	0.970666666666657
288.3053361713668	0.9966666666666667
287.8756774619528	1.1116666666666666
287.44599885005636	0.9730000000000049
287.0163003342854	1.025666666666657
286.5865819132608	0.9213333333333382
286.1568435855947	0.9283333333333333
285.7270853499102	0.8869999999999951
285.2973072048218	0.8096666666666715
284.8675091489438	0.7980000000000048
284.4376911808905	0.7853333333333284
284.00785329928516	0.7936666666666619
283.577995502742	0.7576666666666764
283.14811778987115	0.7066666666666667
282.7182201592914	0.7610000000000097
282.28830260962343	0.6986666666666618
281.85836513947754	0.735
281.42840774747015	0.6623333333333237
280.9984304322157	0.735
280.5684331923285	0.8810000000000097
280.13841602642736	0.7160000000000097
279.70837893312665	0.7063333333333381
279.2783219110408	0.7969999999999952
278.84824495877757	0.785
278.41814807496235	0.8096666666666715
277.98803125820507	0.8323333333333236
277.557894507118	0.7693333333333431
277.12773782031337	0.8033333333333333
276.6975611964142	0.7060000000000097
276.26736463402625	0.6416666666666667
275.8371481317683	0.664333333333343
275.4069116882459	0.7010000000000097
274.97665530208224	0.7643333333333431
274.54637897188735	0.6633333333333333
274.11608269627345	0.7813333333333382
273.68576647384845	0.7013333333333381
273.2554303032375	0.7210000000000097
272.82507418304425	0.6863333333333382
272.39469811188513	0.7593333333333431
271.9643020883682	0.6306666666666569
271.533886111112	0.7676666666666764
271.10345017872675	0.7496666666666715
270.67299428982454	0.6206666666666569
270.2425184430133	0.6280000000000049
269.8120226369118	0.6480000000000049
269.38150687013	0.5953333333333285
268.9509711412781	0.5386666666666619
268.52041544896383	0.5760000000000097
268.08983979180596	0.5939999999999903
267.65924416841244	0.6266666666666667
267.2286285773954	0.579333333333343
266.7979930173607	0.525666666666657
266.36733748692905	0.5530000000000048
265.9366619847041	0.53
265.50596650929805	0.5176666666666764
265.07525105931876	0.34
264.64451563338287	0.3476666666666764
264.21376023009816	0.4116666666666667
263.78298484807476	0.44033333333332847
263.3521894859162	0.33666666666666667
262.9213741422434	0.4123333333333236
262.4905388156598	0.2010000000000097
262.0596835047756	0.27166666666666667
261.62880820819856	0.23266666666667637
261.1979129245432	0.21766666666667636
260.7669976524172	0.21433333333334303
260.3360623904265	0.26566666666665695
259.90510713718317	0.14966666666667153
259.47413189128866	0.11533333333332849
259.04313665136385	0.15199999999999514
258.6121214160123	0.07733333333332364
258.1810861838397	0.07766666666667636
257.75003095345176	0.16766666666667637
257.31895572346724	0.12
256.8878604924875	0.06933333333334303
256.45674525912045	0.1160000000000097
256.0256100219717	0.09833333333333333
255.59445477965582	0.006666666666666667
255.1632795307762	0.0639999999999903
254.73208427393865	0.055
254.300869007751	0.1289999999999903
253.8696337308255	0.1360000000000097
253.4383784417657	0.12300000000000486
253.0071031391773	0.135
252.57580782166383	0.025666666666656967
252.1444924878419	0.10066666666665697
251.71315713631068	0.09466666666667152
251.28180176568023	0.024666666666671517
250.85042637454976	0.041666666666666664
250.41903096153368	0.08766666666667637
249.9876155252377	0.021333333333338183
249.55618006426315	0.051666666666666666
249.12472457721364	0.03233333333332363
248.69324906270137	0.1360000000000097
248.26175351933205	0.06866666666666181
247.83023794570707	0.0360000000000097
247.3987023404278	-0.08766666666667637
246.96714670210864	0.002333333333323632
246.53557102935096	0.06166666666666667
246.10397532076047	0.06966666666667151
245.67235957493423	0.10933333333334304
245.24072379048877	0.03166666666666667
244.8090679660212	0.11199999999999515
244.37739210013714	0.08466666666667151
243.94569619143803	-0.014333333333343034
243.51398023853605	0.02033333333332848
243.0822442400283	0.0489999999999903
242.65048819452264	0.04699999999999515
242.2187121006139	-0.009666666666671517
241.78691595691873	0.003666666666661816
241.35509976203193	-0.04033333333332848
240.9232635145614	-0.0839999999999903
240.49140721310636	-0.09800000000000485
240.059530856266	-0.02699999999999515
239.62763444265474	0.013333333333333334
239.1957179708696	0.010666666666656966
238.76378143951197	-0.035666666666656965
238.33182484718105	0.026333333333338184
237.89984819248693	0.0033333333333333335
237.46785147403094	0.050333333333328484
237.03583469041013	0.09300000000000486
236.6037978402259	-0.035666666666656965
236.1717409220883	0.0639999999999903
235.7396639345922	0.06199999999999515
235.30756687634332	-0.007333333333323632
234.87544974593433	0.001333333333338184
234.44331254197968	0.06433333333334304
234.01115526307206	0.07433333333334304
233.57897790781496	0.008999999999990299
233.1467804748055	-0.06333333333333334
232.7145629626515	-0.06533333333332848
232.28232536995006	-0.05300000000000485
231.8500676953025	0.029666666666671518
231.41778993730375	0.011000000000009702
230.98549209456385	-0.012666666666676369
230.55317416567763	0.0060000000000097016
230.12083614924651	0.08966666666667152
229.68847804386536	0.075
229.2560998481399	0.11800000000000485
228.82370156066932	0.11266666666667637
228.39128318005285	0.03733333333332363
227.95884470488318	0.027666666666676366
227.5263861337704	0.0006666666666569654
227.09390746530931	-0.03666666666666667
226.66140869809703	-0.0033333333333333335
226.22888983073057	-0.0019999999999951493
225.79635086181347	-0.013000000000004851
225.36379178994494	0.006666666666666667
224.93121261371985	0.06633333333333818
224.4986133317331	0.0660000000000097
224.06599394259257	0.03933333333334303
223.63335444489314	0.01699999999999515
223.20069483722963	0.0410000000000097
222.76801511819698	0.05566666666665696
222.33531528640088	0.0639999999999903
221.9025953404362	-0.05199999999999515
221.4698552788978	-0.04133333333333818
221.0370951003849	0.05633333333333818
220.6043148034924	0.030333333333328483
220.17151438682168	0.0639999999999903
219.73869384896756	0.11166666666666666
219.30585318852715	0.08033333333332848
218.87299240409308	0.10133333333333819
218.440111494269	0.07433333333334304
218.0072104576475	0.1363333333333382
217.5742892928257	0.07866666666666182
217.1413479983941	0.04666666666666667
216.70838657295846	0.09266666666667636
216.27540501510927	0.08066666666665696
215.8424033234436	-0.029666666666671518
215.40938149655196	0.06433333333334304
214.97633953303793	0.05266666666667637
214.5432774314942	0.07466666666667152
214.11019519051567	-0.030333333333328483
213.67709280869065	0.034666666666671515
213.24397028462707	0.024333333333343036
212.8108276169111	0.06233333333332363
212.37766480413984	0.010333333333328483
211.9444818449016	0.09166666666666666
211.51127873780212	-0.06133333333333819
211.0780554814319	0.029666666666671518
210.64481207438155	-0.08800000000000485
210.21154851524156	0.07933333333334304
209.77826480261763	-0.024333333333343036
209.34496093509603	-0.021333333333338183
208.91163691127156	0.03733333333332363
208.47829272973476	-0.0019999999999951493
208.0449283890849	0.15066666666665696
207.6115438879125	0.08233333333332363
207.17813922481238	0.03166666666666667
206.74471439836861	0.05533333333332848
206.31126940718693	-0.075
205.87780424985567	0.09
